SampleID,Red,IR
0,825,753
1,799,788
2,790,788
3,793,767
4,808,757
5,827,748
6,799,762
7,818,748
8,805,786
9,846,750
10,851,737
11,828,747
12,832,746
13,812,766
14,793,742
15,818,776
16,798,743
17,816,814
18,874,767
19,740,771
20,780,807
21,844,735
22,788,747
23,788,743
24,798,757
25,828,708
26,771,726
27,795,779
28,878,682
29,730,696
30,749,762
31,803,701
32,752,735
33,797,730
34,739,737
35,767,775
36,743,741
37,753,778
38,788,743
39,799,771
40,821,766
41,811,768
42,808,770
43,798,773
44,829,779
45,812,768
46,825,790
47,827,763
48,769,765
49,808,822
50,840,761
51,816,798
52,813,770
53,790,790
54,819,789
55,838,783
56,808,850
57,883,763
58,778,795
59,821,818
60,863,797
61,804,816
62,820,803
63,829,773
64,792,773
65,847,805
66,823,807
67,825,802
68,831,806
69,841,796
70,849,817
71,854,827
72,836,826
73,845,808
74,835,809
75,835,797
76,838,826
77,829,817
78,839,822
79,831,817
80,821,810
81,864,797
82,842,845
83,857,799
84,814,827
85,813,864
86,819,789
87,787,813
88,833,835
89,831,772
90,810,819
91,846,774
92,778,802
93,860,793
94,822,788
95,828,846
96,792,773
97,797,800
98,844,824
99,841,810
100,850,827
101,841,805
102,827,826
103,838,814
104,842,819
105,843,823
106,838,804
107,842,806
108,844,824
109,828,823
110,830,827
111,798,811
112,860,807
113,823,818
114,825,852
115,857,799
116,785,811
117,827,875
118,894,782
119,814,818
120,819,858
121,868,802
122,815,817
123,838,830
124,844,813
125,811,792
126,819,815
127,839,875
128,888,794
129,802,810
130,867,849
131,821,835
132,842,846
133,835,811
134,831,829
135,834,849
136,849,832
137,835,821
138,850,830
139,841,832
140,846,827
141,837,829
142,835,843
143,834,884
144,922,807
145,789,810
146,835,860
147,871,805
148,830,833
149,855,816
150,842,820
151,874,867
152,875,817
153,843,841
154,905,827
155,862,829
156,860,873
157,898,829
158,860,830
159,869,849
160,878,817
161,837,851
162,909,897
163,872,851
164,864,837
165,873,827
166,866,849
167,894,836
168,858,847
169,888,850
170,907,846
171,883,812
172,891,800
173,848,866
174,870,818
175,868,829
176,899,786
177,840,820
178,850,828
179,794,857
180,847,811
181,855,744
182,810,856
183,874,867
184,793,811
185,828,864
186,936,777
187,858,800
188,841,750
189,815,802
190,816,803
191,866,783
192,833,827
193,895,760
194,820,788
195,825,819
196,816,803
197,828,797
198,842,779
199,810,786
200,842,825
201,815,807
202,828,801
203,843,806
204,873,780
205,868,761
206,812,781
207,854,760
208,845,834
209,917,748
210,834,750
211,822,824
212,876,794
213,775,782
214,848,824
215,849,742
216,819,821
217,802,843
218,838,810
219,834,799
220,830,767
221,848,833
222,816,803
223,806,775
224,839,855
225,917,785
226,864,750
227,851,760
228,804,770
229,819,816
230,846,768
231,828,789
232,849,797
233,833,811
234,820,811
235,821,813
236,826,795
237,864,777
238,810,787
239,812,779
240,814,846
241,925,713
242,827,758
243,865,777
244,848,753
245,778,815
246,849,768
247,805,779
248,855,787
249,846,764
250,785,833
251,866,770
252,775,795
253,861,790
254,857,776
255,817,785
256,840,814
257,877,770
258,845,783
259,892,778
260,852,749
261,836,804
262,855,762
263,826,756
264,866,777
265,828,781
266,821,772
267,832,807
268,820,793
269,843,776
270,842,797
271,809,781
272,841,819
273,838,759
274,846,797
275,864,752
276,835,780
277,846,781
278,817,724
279,811,837
280,940,729
281,803,750
282,826,825
283,867,729
284,776,802
285,809,751
286,830,767
287,847,769
288,867,818
289,816,794
290,819,785
291,840,768
292,863,764
293,852,789
294,807,770
295,829,770
296,866,784
297,842,771
298,847,744
299,867,742
300,827,767
301,808,780
302,844,765
303,821,799
304,844,772
305,783,841
306,855,778
307,788,774
308,829,822
309,923,739
310,794,767
311,822,810
312,871,741
313,843,735
314,869,750
315,827,762
316,859,732
317,801,773
318,836,800
319,847,769
320,802,747
321,824,809
322,881,772
323,784,801
324,859,784
325,840,780
326,824,766
327,829,756
328,822,772
329,855,770
330,858,760
331,857,738
332,851,728
333,814,801
334,826,750
335,821,799
336,829,747
337,828,797
338,858,731
339,779,793
340,773,792
341,861,723
342,793,780
343,855,736
344,812,771
345,812,804
346,836,768
347,837,820
348,938,701
349,797,761
350,832,758
351,866,729
352,836,718
353,831,730
354,839,739
355,812,754
356,806,789
357,848,742
358,827,765
359,825,751
360,815,801
361,814,779
362,812,789
363,806,778
364,875,725
365,852,749
366,830,748
367,876,737
368,842,736
369,856,744
370,841,706
371,821,739
372,823,738
373,787,768
374,879,734
375,804,722
376,793,831
377,865,767
378,765,774
379,792,796
380,824,714
381,820,729
382,809,753
383,817,751
384,861,743
385,839,698
386,815,761
387,878,717
388,807,741
389,796,770
390,838,716
391,804,759
392,824,742
393,821,739
394,798,753
395,797,782
396,801,766
397,839,750
398,817,733
399,823,724
400,817,779
401,845,729
402,842,773
403,821,739
404,815,731
405,802,838
406,902,691
407,783,751
408,854,780
409,862,679
410,798,736
411,816,718
412,764,804
413,869,739
414,817,743
415,807,770
416,853,794
417,806,775
418,843,753
419,831,750
420,843,719
421,826,771
422,827,734
423,825,742
424,869,718
425,855,715
426,819,726
427,813,729
428,798,772
429,809,736
430,822,731
431,793,785
432,817,779
433,768,794
434,801,811
435,835,713
436,811,711
437,830,748
438,837,704
439,783,726
440,841,736
441,842,727
442,798,736
443,810,717
444,824,804
445,850,725
446,774,723
447,803,755
448,848,708
449,794,770
450,816,770
451,778,744
452,813,744
453,837,731
454,806,723
455,815,740
456,816,741
457,852,733
458,857,737
459,829,721
460,828,728
461,807,748
462,817,701
463,809,788
464,871,721
465,808,749
466,804,754
467,804,756
468,808,755
469,850,699
470,765,766
471,886,729
472,800,731
473,799,819
474,873,715
475,804,720
476,838,737
477,829,717
478,825,763
479,860,747
480,853,711
481,840,705
482,853,701
483,805,748
484,815,743
485,825,723
486,796,760
487,819,735
488,804,785
489,797,770
490,795,746
491,827,740
492,840,716
493,816,736
494,824,747
495,829,719
496,847,751
497,850,707
498,845,686
499,817,765
500,808,755
501,790,738
502,823,809
503,902,698
504,786,737
505,790,823
506,806,765
507,804,760
508,834,715
509,805,775
510,864,710
511,807,757
512,812,778
513,919,707
514,838,725
515,831,761
516,862,730
517,799,731
518,815,747
519,821,731
520,824,718
521,819,727
522,802,736
523,795,768
524,818,735
525,845,725
526,808,731
527,816,730
528,800,806
529,850,707
530,827,720
531,848,776
532,852,679
533,789,755
534,836,749
535,833,696
536,807,710
537,815,715
538,813,780
539,804,760
540,763,740
541,858,719
542,821,719
543,790,746
544,791,813
545,861,783
546,815,733
547,848,717
548,837,711
549,805,751
550,840,722
551,830,745
552,849,732
553,869,710
554,828,725
555,836,721
556,810,780
557,839,737
558,810,724
559,786,735
560,798,813
561,830,745
562,796,761
563,816,724
564,825,717
565,800,769
566,857,696
567,789,790
568,888,726
569,839,689
570,815,779
571,875,694
572,787,737
573,796,752
574,859,735
575,811,748
576,821,741
577,775,782
578,803,769
579,800,754
580,841,730
581,837,739
582,823,741
583,814,773
584,818,741
585,839,742
586,850,720
587,868,706
588,835,728
589,803,746
590,817,725
591,784,748
592,859,699
593,813,745
594,836,744
595,768,752
596,794,791
597,800,769
598,787,726
599,819,837
600,877,744
601,784,750
602,823,743
603,827,707
604,852,734
605,845,739
606,818,779
607,856,731
608,832,714
609,862,707
610,838,724
611,826,723
612,808,771
613,838,745
614,819,739
615,820,754
616,806,774
617,781,781
618,797,773
619,808,748
620,833,714
621,832,733
622,802,748
623,853,737
624,835,727
625,860,776
626,917,695
627,807,697
628,796,806
629,856,699
630,784,740
631,828,763
632,843,721
633,773,758
634,791,716
635,789,821
636,852,734
637,807,711
638,799,785
639,859,739
640,773,763
641,900,749
642,849,735
643,844,729
644,831,733
645,808,741
646,834,741
647,829,734
648,839,720
649,836,727
650,816,714
651,801,729
652,793,744
653,867,732
654,778,823
655,878,701
656,770,761
657,812,803
658,847,747
659,811,736
660,857,704
661,795,754
662,848,753
663,822,709
664,839,749
665,890,697
666,809,702
667,823,748
668,848,729
669,785,718
670,820,758
671,842,708
672,772,779
673,836,821
674,827,774
675,811,749
676,849,728
677,815,743
678,808,731
679,817,767
680,827,737
681,833,738
682,856,736
683,835,721
684,827,728
685,790,755
686,816,751
687,836,708
688,810,738
689,823,720
690,769,794
691,832,738
692,804,709
693,815,785
694,848,753
695,795,784
696,811,825
697,895,717
698,792,727
699,857,735
700,809,712
701,811,756
702,853,713
703,806,787
704,879,718
705,800,734
706,836,719
707,803,771
708,817,743
709,829,724
710,798,745
711,818,771
712,822,764
713,802,759
714,808,753
715,834,737
716,805,732
717,794,761
718,840,714
719,811,799
720,882,703
721,804,700
722,800,786
723,847,736
724,765,727
725,810,765
726,844,722
727,785,767
728,799,769
729,851,754
730,845,726
731,820,722
732,812,787
733,811,756
734,818,710
735,836,783
736,888,712
737,815,725
738,806,730
739,803,792
740,802,737
741,826,729
742,806,734
743,822,791
744,821,783
745,802,763
746,813,748
747,833,728
748,840,728
749,801,738
750,780,731
751,834,788
752,883,691
753,798,694
754,824,735
755,840,728
756,778,743
757,853,723
758,792,737
759,837,809
760,810,751
761,772,799
762,862,721
763,797,722
764,825,766
765,840,712
766,808,726
767,827,748
768,867,693
769,826,734
770,852,731
771,815,749
772,803,751
773,844,738
774,814,742
775,821,766
776,809,784
777,801,769
778,804,751
779,827,755
780,845,730
781,798,740
782,796,749
783,822,764
784,856,700
785,828,737
786,829,717
787,786,779
788,821,728
789,835,696
790,781,789
791,898,727
792,776,783
793,787,807
794,829,729
795,784,741
796,845,698
797,785,767
798,849,743
799,876,753
800,871,736
801,859,709
802,841,714
803,824,725
804,799,754
805,846,723
806,829,771
807,840,735
808,818,774
809,804,757
810,803,781
811,792,754
812,850,717
813,810,774
814,811,734
815,843,734
816,844,795
817,921,708
818,824,692
819,824,773
820,876,743
821,813,722
822,800,776
823,883,704
824,780,747
825,799,780
826,786,794
827,797,759
828,824,687
829,800,820
830,849,743
831,796,748
832,832,789
833,899,675
834,811,713
835,862,741
836,797,758
837,851,727
838,806,753
839,828,739
840,834,735
841,795,746
842,806,760
843,805,754
844,847,730
845,817,781
846,811,734
847,786,763
848,838,778
849,922,685
850,830,713
851,830,739
852,816,761
853,819,752
854,811,748
855,829,717
856,797,727
857,826,722
858,797,801
859,852,735
860,806,707
861,808,733
862,889,700
863,792,757
864,816,747
865,823,757
866,839,734
867,842,712
868,816,758
869,827,723
870,816,738
871,876,729
872,827,710
873,833,717
874,822,742
875,808,774
876,819,713
877,832,739
878,857,699
879,782,770
880,820,779
881,831,702
882,823,739
883,859,697
884,784,781
885,828,732
886,801,707
887,826,777
888,893,682
889,794,700
890,822,749
891,839,711
892,781,745
893,818,711
894,787,732
895,830,784
896,825,744
897,783,803
898,848,725
899,867,719
900,811,735
901,806,738
902,798,765
903,862,733
904,862,701
905,849,718
906,830,710
907,812,753
908,811,739
909,842,737
910,825,734
911,819,768
912,808,772
913,776,821
914,833,736
915,813,707
916,824,763
917,882,713
918,797,751
919,844,791
920,901,700
921,823,741
922,861,704
923,806,748
924,846,773
925,827,717
926,797,772
927,862,741
928,798,764
929,817,787
930,792,775
931,805,731
932,849,727
933,801,758
934,834,736
935,838,748
936,844,735
937,840,714
938,871,726
939,836,718
940,814,749
941,838,700
942,791,801
943,819,768
944,775,723
945,807,799
946,846,743
947,756,758
948,852,766
949,839,737
950,807,745
951,828,764
952,851,754
953,820,718
954,828,721
955,830,778
956,872,747
957,792,726
958,797,788
959,888,688
960,806,727
961,846,735
962,807,758
963,799,769
964,834,735
965,809,738
966,849,742
967,817,770
968,795,770
969,809,775
970,810,750
971,860,728
972,811,769
973,814,735
974,823,786
975,908,707
976,828,701
977,810,753
978,793,744
979,802,776
980,818,708
981,794,781
982,850,743
983,816,763
984,790,827
985,842,701
986,789,734
987,854,765
988,849,741
989,791,747
990,880,775
991,849,732
992,838,711
993,833,740
994,812,743
995,799,754
996,831,721
997,818,766
998,843,735
999,814,787
1000,807,767
1001,824,774
1002,802,756
1003,859,731
1004,827,766
1005,811,716
1006,829,755
1007,847,723
1008,854,740
1009,856,711
1010,810,779
1011,851,723
1012,801,717
1013,797,829
1014,850,743
1015,782,776
1016,784,850
1017,862,736
1018,775,741
1019,831,798
1020,893,711
1021,780,743
1022,813,796
1023,923,695
1024,811,719
1025,821,762
1026,867,703
1027,782,767
1028,864,760
1029,814,767
1030,835,750
1031,789,772
1032,789,765
1033,809,774
1034,791,756
1035,828,732
1036,836,726
1037,822,746
1038,831,739
1039,841,803
1040,854,740
1041,824,704
1042,826,795
1043,868,747
1044,780,728
1045,800,792
1046,869,722
1047,792,748
1048,799,795
1049,837,756
1050,773,782
1051,822,751
1052,832,735
1053,813,735
1054,803,751
1055,811,806
1056,922,732
1057,832,719
1058,855,722
1059,825,731
1060,801,750
1061,837,735
1062,813,732
1063,836,738
1064,829,738
1065,794,763
1066,815,786
1067,808,750
1068,842,731
1069,822,746
1070,796,742
1071,809,810
1072,864,733
1073,803,727
1074,853,770
1075,869,696
1076,786,764
1077,837,738
1078,820,718
1079,850,742
1080,842,726
1081,798,734
1082,797,747
1083,800,740
1084,826,763
1085,851,759
1086,830,718
1087,802,778
1088,833,756
1089,830,747
1090,874,755
1091,836,735
1092,824,764
1093,841,745
1094,811,744
1095,856,711
1096,819,717
1097,821,738
1098,832,748
1099,814,771
1100,840,733
1101,822,743
1102,819,754
1103,812,777
1104,793,785
1105,831,780
1106,840,703
1107,828,760
1108,840,759
1109,821,699
1110,790,817
1111,913,711
1112,829,699
1113,818,783
1114,797,747
1115,772,749
1116,796,793
1117,880,740
1118,806,740
1119,814,843
1120,877,769
1121,775,780
1122,841,786
1123,857,729
1124,820,753
1125,836,750
1126,819,770
1127,867,744
1128,864,728
1129,859,750
1130,830,729
1131,823,779
1132,825,754
1133,802,768
1134,841,767
1135,811,739
1136,789,838
1137,831,780
1138,789,753
1139,823,800
1140,871,712
1141,800,731
1142,821,807
1143,874,715
1144,807,725
1145,855,763
1146,879,718
1147,786,759
1148,792,780
1149,880,756
1150,826,752
1151,831,758
1152,807,762
1153,818,788
1154,779,770
1155,817,742
1156,833,729
1157,817,747
1158,815,786
1159,839,756
1160,841,742
1161,861,738
1162,853,726
1163,846,750
1164,810,758
1165,801,787
1166,888,748
1167,805,739
1168,820,795
1169,854,722
1170,759,768
1171,825,766
1172,868,733
1173,787,768
1174,821,782
1175,818,732
1176,817,757
1177,852,715
1178,860,753
1179,819,758
1180,829,760
1181,808,767
1182,836,755
1183,853,700
1184,804,771
1185,807,761
1186,830,759
1187,788,786
1188,867,738
1189,830,755
1190,839,797
1191,814,776
1192,826,767
1193,825,743
1194,858,742
1195,826,721
1196,823,774
1197,824,749
1198,865,733
1199,848,742
1200,827,742
1201,805,728
1202,832,786
1203,831,746
1204,833,759
1205,834,723
1206,813,745
1207,780,819
1208,845,802
1209,814,760
1210,831,758
1211,851,730
1212,803,763
1213,831,749
1214,833,743
1215,859,746
1216,857,714
1217,810,761
1218,857,747
1219,800,729
1220,852,711
1221,811,765
1222,836,774
1223,822,790
1224,801,794
1225,800,777
1226,816,776
1227,884,735
1228,824,776
1229,839,727
1230,808,796
1231,867,743
1232,842,710
1233,839,793
1234,884,715
1235,794,764
1236,827,801
1237,883,756
1238,798,746
1239,819,819
1240,853,765
1241,766,787
1242,797,797
1243,871,744
1244,830,750
1245,836,714
1246,808,810
1247,889,769
1248,854,734
1249,858,722
1250,829,724
1251,815,773
1252,816,742
1253,842,772
1254,821,765
1255,825,762
1256,829,758
1257,799,778
1258,824,789
1259,837,740
1260,828,751
1261,799,716
1262,811,849
1263,906,743
1264,824,750
1265,842,780
1266,877,692
1267,787,776
1268,816,775
1269,859,733
1270,807,766
1271,837,760
1272,836,722
1273,779,766
1274,806,776
1275,812,737
1276,791,766
1277,835,731
1278,807,780
1279,809,784
1280,841,725
1281,837,726
1282,835,723
1283,830,771
1284,822,738
1285,826,758
1286,841,757
1287,823,748
1288,829,734
1289,816,732
1290,807,757
1291,811,747
1292,827,745
1293,767,757
1294,820,811
1295,841,767
1296,794,770
1297,820,740
1298,840,720
1299,822,778
1300,815,730
1301,801,787
1302,854,754
1303,840,719
1304,817,755
1305,862,716
1306,794,730
1307,782,814
1308,879,705
1309,788,749
1310,790,792
1311,808,782
1312,805,760
1313,815,764
1314,835,737
1315,846,743
1316,812,768
1317,825,744
1318,841,784
1319,861,741
1320,855,705
1321,845,741
1322,816,758
1323,795,765
1324,855,751
1325,791,772
1326,859,759
1327,800,833
1328,840,772
1329,779,737
1330,809,778
1331,888,709
1332,772,755
1333,838,808
1334,898,739
1335,855,736
1336,838,792
1337,923,711
1338,786,725
1339,813,835
1340,900,695
1341,778,743
1342,827,790
1343,855,750
1344,795,765
1345,804,807
1346,836,745
1347,851,718
1348,820,757
1349,835,748
1350,829,742
1351,851,760
1352,855,745
1353,844,750
1354,822,744
1355,801,788
1356,822,758
1357,856,736
1358,815,716
1359,815,822
1360,889,768
1361,781,767
1362,808,810
1363,903,681
1364,812,773
1365,847,773
1366,821,740
1367,834,760
1368,863,772
1369,886,698
1370,816,747
1371,824,766
1372,840,739
1373,867,769
1374,859,741
1375,837,748
1376,817,765
1377,804,795
1378,786,781
1379,848,737
1380,830,780
1381,834,748
1382,821,792
1383,816,772
1384,839,766
1385,849,751
1386,867,731
1387,824,763
1388,801,747
1389,882,735
1390,823,739
1391,840,782
1392,839,722
1393,786,799
1394,805,774
1395,834,735
1396,816,785
1397,846,745
1398,812,779
1399,823,765
1400,842,725
1401,804,788
1402,904,733
1403,829,711
1404,800,809
1405,877,755
1406,849,716
1407,819,763
1408,872,707
1409,801,709
1410,788,823
1411,856,737
1412,845,747
1413,814,753
1414,817,792
1415,818,798
1416,792,804
1417,827,772
1418,850,761
1419,844,737
1420,810,735
1421,861,721
1422,839,785
1423,865,708
1424,825,757
1425,871,739
1426,802,750
1427,788,795
1428,875,720
1429,812,727
1430,832,854
1431,823,765
1432,760,773
1433,816,761
1434,848,745
1435,844,730
1436,823,726
1437,821,748
1438,882,759
1439,856,715
1440,826,756
1441,887,706
1442,783,764
1443,818,764
1444,831,748
1445,825,755
1446,811,790
1447,795,795
1448,800,781
1449,802,777
1450,816,742
1451,841,738
1452,815,740
1453,823,790
1454,879,741
1455,840,742
1456,855,790
1457,892,708
1458,786,757
1459,803,806
1460,886,715
1461,804,741
1462,842,786
1463,847,776
1464,766,774
1465,809,815
1466,831,725
1467,867,741
1468,819,737
1469,820,798
1470,903,813
1471,858,758
1472,850,740
1473,869,759
1474,829,759
1475,789,788
1476,838,744
1477,824,742
1478,819,746
1479,810,768
1480,811,779
1481,796,786
1482,820,761
1483,849,747
1484,826,747
1485,823,817
1486,877,727
1487,824,742
1488,859,760
1489,896,735
1490,790,728
1491,815,784
1492,851,700
1493,782,762
1494,827,714
1495,785,750
1496,827,771
1497,834,758
1498,789,781
1499,862,743
1500,835,761
1501,823,777
1502,845,784
1503,812,762
1504,822,785
1505,904,755
1506,871,735
1507,820,801
1508,835,743
1509,828,740
1510,874,754
1511,811,742
1512,838,750
1513,828,768
1514,807,773
1515,826,750
1516,841,771
1517,852,772
1518,841,767
1519,819,806
1520,830,763
1521,822,767
1522,870,755
1523,823,763
1524,812,771
1525,845,736
1526,849,724
1527,796,790
1528,885,705
1529,798,770
1530,795,837
1531,886,761
1532,827,762
1533,842,718
1534,805,795
1535,805,787
1536,838,738
1537,870,759
1538,857,756
1539,814,772
1540,847,757
1541,813,765
1542,854,747
1543,843,736
1544,834,724
1545,840,737
1546,800,788
1547,822,736
1548,851,761
1549,841,711
1550,794,824
1551,861,761
1552,805,759
1553,814,814
1554,870,755
1555,790,756
1556,821,790
1557,873,719
1558,830,736
1559,839,783
1560,882,694
1561,792,738
1562,813,821
1563,859,723
1564,811,752
1565,846,788
1566,858,777
1567,787,784
1568,812,812
1569,837,751
1570,866,744
1571,812,780
1572,832,744
1573,821,762
1574,851,751
1575,856,729
1576,847,729
1577,829,727
1578,821,784
1579,813,743
1580,825,743
1581,793,742
1582,807,877
1583,837,753
1584,782,753
1585,813,771
1586,874,726
1587,804,763
1588,829,738
1589,835,755
1590,828,751
1591,833,720
1592,848,690
1593,814,749
1594,832,785
1595,830,751
1596,851,776
1597,873,763
1598,834,794
1599,821,794
1600,817,779
1601,831,740
1602,855,739
1603,806,776
1604,830,749
1605,826,761
1606,851,743
1607,863,723
1608,843,746
1609,826,743
1610,809,800
1611,811,746
1612,827,745
1613,791,739
1614,797,797
1615,811,760
1616,768,783
1617,834,732
1618,846,754
1619,821,769
1620,827,709
1621,793,792
1622,918,725
1623,833,699
1624,823,778
1625,878,719
1626,793,776
1627,802,796
1628,851,776
1629,789,743
1630,818,822
1631,821,794
1632,773,787
1633,812,824
1634,923,755
1635,816,743
1636,798,752
1637,811,747
1638,883,733
1639,869,739
1640,856,753
1641,863,748
1642,832,756
1643,802,752
1644,822,752
1645,824,755
1646,849,726
1647,804,834
1648,829,762
1649,770,768
1650,827,801
1651,821,769
1652,799,736
1653,807,816
1654,890,736
1655,829,738
1656,864,785
1657,937,756
1658,847,736
1659,820,770
1660,813,773
1661,830,742
1662,804,703
1663,810,791
1664,842,788
1665,814,781
1666,812,772
1667,858,731
1668,814,774
1669,825,754
1670,804,772
1671,823,768
1672,825,772
1673,833,763
1674,838,737
1675,828,761
1676,815,795
1677,824,755
1678,840,748
1679,844,773
1680,885,704
1681,790,740
1682,775,806
1683,866,732
1684,825,766
1685,847,762
1686,839,746
1687,792,792
1688,808,796
1689,821,781
1690,816,756
1691,844,723
1692,815,766
1693,814,793
1694,860,785
1695,848,737
1696,864,718
1697,855,729
1698,823,743
1699,802,764
1700,847,756
1701,817,754
1702,841,747
1703,834,735
1704,838,736
1705,806,780
1706,804,762
1707,848,744
1708,817,832
1709,855,755
1710,789,781
1711,822,779
1712,846,735
1713,827,760
1714,843,732
1715,802,798
1716,881,738
1717,827,733
1718,839,773
1719,882,720
1720,850,697
1721,786,771
1722,863,763
1723,786,745
1724,812,821
1725,880,723
1726,781,781
1727,791,833
1728,848,794
1729,792,764
1730,855,752
1731,837,738
1732,819,741
1733,831,809
1734,826,756
1735,860,749
1736,861,737
1737,854,715
1738,813,730
1739,811,760
1740,843,729
1741,811,777
1742,872,740
1743,822,711
1744,791,798
1745,832,766
1746,794,749
1747,840,795
1748,881,738
1749,788,779
1750,808,835
1751,870,742
1752,801,791
1753,805,815
1754,887,702
1755,781,773
1756,855,715
1757,798,757
1758,874,737
1759,847,723
1760,837,736
1761,817,733
1762,802,779
1763,836,747
1764,815,786
1765,838,757
1766,807,783
1767,808,786
1768,791,802
1769,807,803
1770,851,739
1771,817,752
1772,826,744
1773,827,838
1774,902,723
1775,826,741
1776,842,788
1777,884,699
1778,785,762
1779,795,779
1780,883,715
1781,846,761
1782,852,777
1783,855,688
1784,808,748
1785,795,767
1786,814,757
1787,820,730
1788,803,766
1789,798,790
1790,802,813
1791,818,770
1792,796,754
1793,839,761
1794,879,757
1795,824,769
1796,850,748
1797,816,777
1798,860,733
1799,852,723
1800,836,725
1801,828,726
1802,805,773
1803,821,742
1804,796,762
1805,846,786
1806,845,768
1807,779,799
1808,808,786
1809,805,724
1810,818,742
1811,840,769
1812,796,738
1813,818,786
1814,842,734
1815,832,802
1816,908,738
1817,845,692
1818,809,758
1819,822,773
1820,811,756
1821,852,771
1822,848,706
1823,815,767
1824,805,745
1825,810,785
1826,809,753
1827,829,750
1828,809,761
1829,818,791
1830,815,762
1831,816,754
1832,822,778
1833,835,739
1834,839,734
1835,815,780
1836,812,772
1837,847,744
1838,818,757
1839,887,719
1840,823,700
1841,769,805
1842,850,741
1843,805,726
1844,794,803
1845,886,750
1846,773,779
1847,790,840
1848,865,759
1849,780,747
1850,841,787
1851,866,737
1852,776,724
1853,840,823
1854,885,755
1855,838,740
1856,854,737
1857,825,725
1858,816,780
1859,823,745
1860,810,775
1861,857,751
1862,847,722
1863,804,728
1864,817,734
1865,821,776
1866,807,767
1867,851,746
1868,853,743
1869,800,768
1870,826,864
1871,862,742
1872,773,748
1873,828,782
1874,889,702
1875,789,752
1876,827,782
1877,862,743
1878,853,750
1879,862,742
1880,855,706
1881,796,741
1882,804,762
1883,844,729
1884,801,766
1885,840,727
1886,798,781
1887,802,801
1888,859,834
1889,797,776
1890,872,741
1891,828,775
1892,820,742
1893,821,777
1894,817,780
1895,855,747
1896,871,756
1897,843,744
1898,832,752
1899,803,746
1900,866,721
1901,827,741
1902,832,762
1903,866,702
1904,798,724
1905,810,771
1906,793,770
1907,859,743
1908,829,737
1909,810,790
1910,834,788
1911,817,764
1912,784,820
1913,848,722
1914,846,723
1915,788,826
1916,898,727
1917,825,766
1918,876,734
1919,846,734
1920,844,730
1921,823,733
1922,807,771
1923,833,755
1924,825,752
1925,842,735
1926,816,766
1927,815,767
1928,791,787
1929,809,754
1930,833,749
1931,830,743
1932,831,718
1933,833,799
1934,832,745
1935,821,791
1936,888,739
1937,844,700
1938,787,817
1939,859,743
1940,807,774
1941,838,788
1942,897,696
1943,796,729
1944,834,786
1945,864,752
1946,765,775
1947,841,783
1948,859,704
1949,799,785
1950,804,824
1951,847,731
1952,804,756
1953,895,770
1954,832,751
1955,805,771
1956,838,747
1957,855,752
1958,866,729
1959,846,733
1960,855,752
1961,820,741
1962,816,740
1963,842,727
1964,787,801
1965,833,799
1966,802,782
1967,793,847
1968,847,740
1969,778,758
1970,823,800
1971,867,755
1972,812,731
1973,828,796
1974,890,720
1975,858,749
1976,853,763
1977,853,697
1978,783,792
1979,822,727
1980,812,822
1981,913,775
1982,811,735
1983,803,762
1984,814,780
1985,788,763
1986,844,741
1987,830,764
1988,849,742
1989,827,802
1990,810,768
1991,822,756
1992,846,754
1993,854,757
1994,829,747
1995,816,743
1996,817,787
1997,905,722
1998,825,718
1999,836,737
2000,842,727
2001,788,745
2002,789,728
2003,836,747
2004,832,760
2005,830,757
2006,795,797
2007,830,796
2008,814,769
2009,801,798
2010,903,719
2011,794,737
2012,802,786
2013,869,738
2014,841,729
2015,867,767
2016,910,732
2017,821,721
2018,801,756
2019,849,754
2020,819,766
2021,856,756
2022,815,750
2023,822,763
2024,807,764
2025,797,783
2026,828,764
2027,834,761
2028,861,741
2029,806,778
2030,797,799
2031,829,753
2032,825,790
2033,870,707
2034,822,735
2035,820,793
2036,832,760
2037,831,731
2038,838,798
2039,830,796
2040,801,739
2041,814,807
2042,854,791
2043,843,753
2044,820,706
2045,819,735
2046,818,766
2047,792,790
2048,793,786
2049,810,782
2050,847,737
2051,811,765
2052,843,753
2053,800,782
2054,815,772
2055,841,769
2056,840,753
2057,861,737
2058,816,762
2059,818,749
2060,794,720
2061,844,807
2062,797,799
2063,775,733
2064,810,807
2065,867,738
2066,785,734
2067,812,781
2068,864,717
2069,762,787
2070,794,792
2071,827,753
2072,804,780
2073,865,772
2074,857,712
2075,802,769
2076,824,758
2077,855,738
2078,844,730
2079,849,717
2080,839,722
2081,826,756
2082,816,776
2083,823,762
2084,832,744
2085,825,766
2086,825,781
2087,806,789
2088,806,776
2089,821,751
2090,853,725
2091,810,731
2092,812,742
2093,840,777
2094,904,727
2095,822,750
2096,856,747
2097,836,703
2098,812,764
2099,863,716
2100,805,747
2101,849,751
2102,818,750
2103,785,803
2104,837,788
2105,811,749
2106,827,776
2107,872,742
2108,873,755
2109,822,780
2110,839,759
2111,877,755
2112,870,747
2113,853,720
2114,826,771
2115,852,726
2116,830,762
2117,855,744
2118,829,752
2119,841,747
2120,824,770
2121,812,760
2122,863,747
2123,814,773
2124,798,746
2125,821,775
2126,816,772
2127,839,780
2128,858,735
2129,815,770
2130,857,761
2131,823,723
2132,807,800
2133,922,708
2134,813,729
2135,821,773
2136,876,702
2137,772,776
2138,825,824
2139,897,733
2140,809,720
2141,822,844
2142,868,746
2143,794,774
2144,814,801
2145,895,740
2146,805,780
2147,822,740
2148,816,754
2149,867,730
2150,852,729
2151,840,715
2152,825,720
2153,821,761
2154,796,749
2155,797,765
2156,841,733
2157,808,746
2158,792,845
2159,839,780
2160,790,768
2161,856,815
2162,884,715
2163,786,743
2164,817,773
2165,904,710
2166,828,724
2167,843,758
2168,884,752
2169,829,760
2170,804,759
2171,828,777
2172,809,720
2173,811,738
2174,810,836
2175,855,804
2176,814,774
2177,836,761
2178,856,743
2179,810,770
2180,822,740
2181,819,761
2182,853,745
2183,858,737
2184,861,729
2185,838,741
2186,818,792
2187,843,795
2188,882,718
2189,811,721
2190,810,749
2191,848,730
2192,787,788
2193,815,771
2194,877,719
2195,790,769
2196,842,745
2197,806,755
2198,799,771
2199,818,773
2200,820,769
2201,883,743
2202,839,745
2203,792,763
2204,846,750
2205,901,756
2206,837,721
2207,831,727
2208,834,755
2209,818,783
2210,849,749
2211,823,758
2212,847,751
2213,824,790
2214,825,804
2215,817,778
2216,817,759
2217,848,732
2218,824,759
2219,816,775
2220,855,753
2221,834,757
2222,875,725
2223,848,740
2224,858,732
2225,827,756
2226,801,804
2227,891,752
2228,817,720
2229,814,814
2230,868,753
2231,776,781
2232,792,815
2233,883,743
2234,833,740
2235,803,818
2236,846,750
2237,819,752
2238,846,788
2239,921,733
2240,817,729
2241,821,747
2242,806,756
2243,838,763
2244,817,733
2245,848,754
2246,803,745
2247,799,768
2248,817,789
2249,817,741
2250,840,740
2251,830,724
2252,810,805
2253,861,750
2254,808,757
2255,850,783
2256,858,732
2257,795,723
2258,795,818
2259,897,708
2260,785,746
2261,843,776
2262,870,709
2263,783,737
2264,820,788
2265,829,751
2266,817,750
2267,811,748
2268,835,751
2269,820,780
2270,799,779
2271,803,774
2272,824,743
2273,860,739
2274,806,789
2275,830,753
2276,831,780
2277,868,737
2278,862,725
2279,853,727
2280,839,734
2281,806,775
2282,816,747
2283,787,754
2284,821,806
2285,875,723
2286,746,782
2287,787,812
2288,829,751
2289,825,730
2290,832,773
2291,819,729
2292,805,770
2293,849,740
2294,855,736
2295,849,740
2296,858,709
2297,799,757
2298,809,751
2299,842,737
2300,794,769
2301,856,744
2302,831,757
2303,799,806
2304,833,767
2305,829,758
2306,818,735
2307,834,749
2308,819,793
2309,830,774
2310,840,744
2311,874,738
2312,860,735
2313,824,759
2314,801,774
2315,826,734
2316,835,776
2317,856,718
2318,794,752
2319,840,727
2320,778,778
2321,811,758
2322,855,708
2323,777,800
2324,872,774
2325,794,750
2326,792,814
2327,867,769
2328,843,751
2329,861,754
2330,804,781
2331,826,747
2332,812,761
2333,835,754
2334,876,734
2335,824,698
2336,827,775
2337,812,770
2338,844,741
2339,819,761
2340,817,774
2341,813,795
2342,805,799
2343,775,774
2344,840,761
2345,854,738
2346,826,755
2347,833,728
2348,843,763
2349,852,796
2350,920,704
2351,824,727
2352,802,788
2353,811,758
2354,805,731
2355,832,807
2356,899,722
2357,788,763
2358,807,825
2359,859,771
2360,786,766
2361,842,770
2362,862,722
2363,794,764
2364,876,800
2365,840,744
2366,866,742
2367,870,729
2368,834,741
2369,821,760
2370,816,758
2371,824,776
2372,833,754
2373,819,755
2374,824,783
2375,819,772
2376,793,787
2377,844,749
2378,835,748
2379,833,728
2380,790,794
2381,824,803
2382,899,721
2383,829,748
2384,849,761
2385,864,748
2386,782,771
2387,850,782
2388,848,715
2389,804,733
2390,833,723
2391,800,726
2392,801,809
2393,823,753
2394,817,748
2395,818,763
2396,841,790
2397,794,792
2398,819,763
2399,844,732
2400,819,739
2401,843,740
2402,825,761
2403,838,768
2404,827,761
2405,851,756
2406,841,718
2407,855,734
2408,832,741
2409,805,781
2410,828,744
2411,851,729
2412,810,744
2413,840,780
2414,817,751
2415,785,793
2416,822,751
2417,855,737
2418,836,786
2419,826,725
2420,784,820
2421,894,729
2422,847,717
2423,835,783
2424,902,714
2425,778,764
2426,791,742
2427,840,742
2428,827,762
2429,821,754
2430,801,739
2431,806,791
2432,793,771
2433,830,752
2434,833,763
2435,823,748
2436,814,778
2437,821,769
2438,839,750
2439,848,752
2440,864,740
2441,816,737
2442,813,730
2443,813,766
2444,863,744
2445,858,709
2446,819,760
2447,879,740
2448,792,774
2449,814,822
2450,896,701
2451,792,719
2452,815,850
2453,888,745
2454,774,772
2455,805,785
2456,906,708
2457,812,734
2458,788,777
2459,857,728
2460,804,736
2461,837,759
2462,879,691
2463,812,754
2464,863,790
2465,831,758
2466,848,741
2467,814,765
2468,818,798
2469,801,792
2470,834,780
2471,802,767
2472,834,754
2473,843,758
2474,788,735
2475,817,798
2476,863,744
2477,820,729
2478,804,786
2479,850,693
2480,769,761
2481,784,783
2482,864,735
2483,795,758
2484,830,800
2485,821,759
2486,768,798
2487,835,761
2488,819,732
2489,834,731
2490,820,771
2491,818,802
2492,895,789
2493,858,731
2494,846,758
2495,830,714
2496,841,737
2497,803,774
2498,838,754
2499,816,737
2500,852,745
2501,809,776
2502,822,810
2503,803,794
2504,804,770
2505,855,725
2506,836,778
2507,842,778
2508,845,748
2509,837,776
2510,868,718
2511,851,714
2512,793,742
2513,802,761
2514,821,760
2515,838,761
2516,861,748
2517,781,795
2518,807,786
2519,816,773
2520,798,796
2521,892,725
2522,783,753
2523,821,794
2524,865,744
2525,832,728
2526,839,790
2527,902,711
2528,792,732
2529,810,784
2530,864,750
2531,821,759
2532,849,748
2533,809,768
2534,803,780
2535,799,797
2536,804,769
2537,847,750
2538,813,791
2539,844,717
2540,793,765
2541,864,776
2542,873,722
2543,834,758
2544,884,716
2545,779,769
2546,841,789
2547,838,761
2548,806,719
2549,811,799
2550,885,722
2551,778,772
2552,803,804
2553,902,753
2554,810,770
2555,844,718
2556,803,788
2557,844,760
2558,861,741
2559,867,733
2560,836,748
2561,816,765
2562,837,742
2563,809,748
2564,856,732
2565,807,751
2566,812,756
2567,810,783
2568,818,775
2569,844,744
2570,823,759
2571,827,745
2572,813,825
2573,864,776
2574,846,729
2575,862,771
2576,868,703
2577,773,751
2578,810,775
2579,842,745
2580,831,716
2581,817,778
2582,838,749
2583,788,768
2584,797,769
2585,834,717
2586,802,773
2587,839,742
2588,833,760
2589,805,756
2590,851,725
2591,869,747
2592,838,740
2593,818,782
2594,823,726
2595,813,768
2596,843,735
2597,824,733
2598,819,728
2599,829,745
2600,804,776
2601,794,750
2602,820,716
2603,802,736
2604,799,800
2605,831,743
2606,822,764
2607,857,762
2608,861,722
2609,816,763
2610,838,737
2611,803,765
2612,862,771
2613,852,710
2614,822,775
2615,864,736
2616,829,770
2617,792,763
2618,888,747
2619,844,737
2620,841,799
2621,816,777
2622,804,779
2623,820,765
2624,848,743
2625,836,770
2626,820,745
2627,817,750
2628,861,764
2629,823,751
2630,852,728
2631,841,724
2632,819,747
2633,817,752
2634,836,736
2635,799,749
2636,839,755
2637,783,806
2638,810,792
2639,810,750
2640,827,781
2641,877,730
2642,778,743
2643,816,808
2644,911,742
2645,821,715
2646,840,792
2647,893,690
2648,771,739
2649,821,851
2650,901,698
2651,803,751
2652,824,807
2653,863,752
2654,765,791
2655,789,817
2656,881,747
2657,807,741
2658,836,743
2659,840,750
2660,850,748
2661,865,728
2662,853,753
2663,849,744
2664,826,752
2665,807,758
2666,820,757
2667,869,725
2668,819,733
2669,803,812
2670,847,756
2671,766,782
2672,802,808
2673,892,689
2674,783,734
2675,814,796
2676,861,730
2677,802,749
2678,835,784
2679,884,769
2680,849,748
2681,807,783
2682,801,771
2683,803,751
2684,830,750
2685,822,776
2686,845,792
2687,806,783
2688,793,771
2689,872,735
2690,824,786
2691,833,743
2692,814,791
2693,825,774
2694,806,756
2695,847,760
2696,861,741
2697,820,771
2698,808,813
2699,875,725
2700,832,714
2701,830,749
2702,848,715
2703,790,743
2704,809,793
2705,841,722
2706,813,776
2707,822,737
2708,806,778
2709,794,813
2710,806,785
2711,784,792
2712,846,754
2713,843,705
2714,773,755
2715,850,769
2716,895,785
2717,866,729
2718,844,755
2719,847,746
2720,809,758
2721,798,756
2722,859,743
2723,810,754
2724,833,772
2725,806,764
2726,821,797
2727,798,780
2728,809,743
2729,843,731
2730,826,795
2731,853,748
2732,806,773
2733,876,739
2734,860,751
2735,874,743
2736,848,723
2737,801,836
2738,893,725
2739,802,726
2740,827,798
2741,864,710
2742,804,719
2743,802,829
2744,846,754
2745,823,732
2746,793,827
2747,850,769
2748,764,780
2749,830,805
2750,927,743
2751,835,729
2752,843,733
2753,817,759
2754,843,752
2755,813,740
2756,844,725
2757,842,725
2758,818,726
2759,822,769
2760,817,763
2761,853,750
2762,810,745
2763,807,784
2764,847,753
2765,807,750
2766,831,812
2767,874,743
2768,809,725
2769,823,823
2770,895,689
2771,778,730
2772,835,775
2773,858,700
2774,790,717
2775,803,789
2776,822,750
2777,818,736
2778,814,757
2779,836,765
2780,807,781
2781,816,754
2782,836,753
2783,851,748
2784,834,736
2785,816,792
2786,843,734
2787,814,735
2788,850,739
2789,844,734
2790,833,727
2791,824,760
2792,807,786
2793,816,731
2794,789,773
2795,820,812
2796,874,756
2797,775,769
2798,791,800
2799,884,738
2800,842,723
2801,818,784
2802,867,712
2803,797,760
2804,860,740
2805,856,713
2806,803,730
2807,838,731
2808,801,780
2809,819,748
2810,849,721
2811,828,761
2812,842,786
2813,815,768
2814,776,798
2815,819,776
2816,834,725
2817,783,743
2818,806,759
2819,812,752
2820,861,770
2821,856,744
2822,859,732
2823,856,722
2824,817,768
2825,813,744
2826,814,741
2827,838,802
2828,852,705
2829,804,763
2830,819,778
2831,785,772
2832,817,761
2833,830,728
2834,793,771
2835,876,793
2836,817,733
2837,829,799
2838,889,760
2839,856,734
2840,840,747
2841,817,776
2842,824,752
2843,838,743
2844,831,729
2845,845,750
2846,830,736
2847,796,774
2848,823,752
2849,846,745
2850,811,741
2851,825,792
2852,821,781
2853,818,768
2854,825,765
2855,842,741
2856,844,736
2857,808,770
2858,816,764
2859,826,736
2860,841,770
2861,876,710
2862,797,713
2863,806,825
2864,817,761
2865,830,734
2866,814,815
2867,878,746
2868,798,779
2869,816,826
2870,875,709
2871,814,728
2872,828,747
2873,843,783
2874,852,757
2875,829,775
2876,856,729
2877,839,743
2878,831,735
2879,810,753
2880,818,778
2881,857,721
2882,819,781
2883,830,749
2884,818,781
2885,804,800
2886,794,773
2887,833,748
2888,853,739
2889,823,770
2890,816,764
2891,785,784
2892,865,806
2893,914,699
2894,814,732
2895,827,766
2896,848,761
2897,773,735
2898,831,774
2899,830,716
2900,785,787
2901,804,802
2902,823,782
2903,806,769
2904,835,736
2905,815,750
2906,812,759
2907,827,758
2908,849,745
2909,859,776
2910,863,716
2911,823,742
2912,817,791
2913,846,782
2914,812,757
2915,830,751
2916,813,755
2917,830,770
2918,811,757
2919,792,775
2920,808,753
2921,850,725
2922,854,739
2923,803,808
2924,807,785
2925,835,721
2926,821,754
2927,885,731
2928,813,735
2929,818,771
2930,838,729
2931,807,777
2932,847,734
2933,829,690
2934,805,720
2935,805,774
2936,798,771
2937,858,726
2938,859,710
2939,803,758
2940,826,766
2941,801,780
2942,840,783
2943,839,750
2944,837,739
2945,800,763
2946,847,746
2947,829,742
2948,845,736
2949,836,731
2950,840,725
2951,789,758
2952,824,794
2953,847,739
2954,825,752
2955,833,782
2956,823,770
2957,777,829
2958,856,734
2959,836,712
2960,832,792
2961,818,771
2962,811,755
2963,817,830
2964,918,705
2965,836,709
2966,833,785
2967,883,688
2968,763,763
2969,810,761
2970,831,754
2971,832,760
2972,820,777
2973,814,787
2974,795,769
2975,827,743
2976,850,727
2977,809,765
2978,838,756
2979,828,771
2980,868,730
2981,854,725
2982,861,725
2983,833,760
2984,818,768
2985,842,712
2986,796,820
2987,833,782
2988,780,767
2989,791,840
2990,845,730
2991,769,769
2992,841,775
2993,838,735
2994,804,741
2995,833,794
2996,865,741
2997,844,754
2998,864,747
2999,853,721
3000,806,765
3001,796,727
3002,794,756
3003,821,761
3004,838,719
3005,807,755
3006,807,784
3007,812,783
3008,803,740
3009,823,759
3010,828,762
3011,818,781
3012,806,776
3013,837,750
3014,852,736
3015,862,741
3016,840,739
3017,802,742
3018,823,786
3019,879,713
3020,818,728
3021,830,743
3022,817,720
3023,775,794
3024,805,743
3025,857,743
3026,814,768
3027,818,787
3028,777,805
3029,824,790
3030,801,762
3031,830,754
3032,856,727
3033,812,754
3034,841,769
3035,849,740
3036,854,746
3037,895,713
3038,830,733
3039,833,746
3040,811,791
3041,853,753
3042,831,746
3043,836,757
3044,801,783
3045,803,785
3046,782,803
3047,797,759
3048,852,732
3049,826,770
3050,837,728
3051,815,765
3052,852,754
3053,875,716
3054,835,765
3055,883,709
3056,780,758
3057,820,797
3058,814,768
3059,817,753
3060,835,801
3061,895,722
3062,793,740
3063,798,826
3064,854,713
3065,789,735
3066,860,777
3067,843,787
3068,822,778
3069,855,753
3070,839,737
3071,847,724
3072,814,755
3073,818,758
3074,820,758
3075,842,756
3076,836,733
3077,830,731
3078,814,743
3079,810,778
3080,810,749
3081,851,734
3082,797,725
3083,829,857
3084,852,754
3085,783,751
3086,838,811
3087,908,689
3088,793,735
3089,801,774
3090,848,726
3091,840,753
3092,843,740
3093,871,723
3094,805,734
3095,818,796
3096,809,734
3097,817,732
3098,819,746
3099,844,788
3100,803,766
3101,836,778
3102,817,741
3103,850,741
3104,894,773
3105,790,772
3106,829,762
3107,863,762
3108,849,724
3109,849,738
3110,849,719
3111,792,771
3112,812,785
3113,854,731
3114,784,742
3115,819,791
3116,866,773
3117,775,803
3118,840,748
3119,873,713
3120,826,735
3121,836,751
3122,821,738
3123,860,780
3124,868,722
3125,829,753
3126,867,747
3127,827,730
3128,805,766
3129,819,715
3130,796,730
3131,833,775
3132,822,758
3133,788,807
3134,806,775
3135,812,742
3136,836,740
3137,823,756
3138,851,743
3139,817,771
3140,845,751
3141,856,756
3142,871,760
3143,827,733
3144,804,784
3145,810,733
3146,786,760
3147,864,724
3148,793,751
3149,827,759
3150,821,752
3151,800,808
3152,895,714
3153,793,762
3154,821,799
3155,863,753
3156,794,743
3157,839,831
3158,904,720
3159,810,716
3160,834,832
3161,880,710
3162,800,755
3163,883,764
3164,827,735
3165,826,745
3166,802,761
3167,807,770
3168,835,745
3169,810,759
3170,834,759
3171,823,798
3172,814,766
3173,823,771
3174,830,768
3175,851,721
3176,822,747
3177,787,780
3178,859,737
3179,840,734
3180,829,778
3181,897,704
3182,781,725
3183,796,827
3184,863,709
3185,784,725
3186,811,766
3187,864,732
3188,765,798
3189,774,818
3190,833,755
3191,798,761
3192,841,765
3193,838,747
3194,798,783
3195,862,773
3196,878,718
3197,824,748
3198,904,765
3199,817,753
3200,810,761
3201,831,746
3202,826,757
3203,855,755
3204,821,768
3205,800,769
3206,805,774
3207,811,747
3208,854,757
3209,809,815
3210,910,704
3211,763,780
3212,800,788
3213,877,712
3214,856,762
3215,862,743
3216,815,750
3217,807,766
3218,824,749
3219,823,725
3220,837,755
3221,854,705
3222,794,770
3223,828,784
3224,812,732
3225,796,750
3226,836,748
3227,832,795
3228,798,766
3229,821,774
3230,826,746
3231,857,732
3232,826,756
3233,808,755
3234,810,768
3235,868,735
3236,831,731
3237,843,734
3238,831,739
3239,811,780
3240,817,738
3241,848,789
3242,838,723
3243,814,805
3244,819,765
3245,784,789
3246,855,781
3247,849,714
3248,824,783
3249,841,711
3250,809,740
3251,829,804
3252,926,755
3253,826,721
3254,813,807
3255,879,711
3256,784,757
3257,855,781
3258,874,710
3259,807,725
3260,804,816
3261,875,746
3262,733,783
3263,802,784
3264,882,732
3265,826,765
3266,841,765
3267,824,756
3268,836,753
3269,869,753
3270,834,750
3271,848,724
3272,816,773
3273,834,714
3274,789,813
3275,890,717
3276,808,729
3277,815,804
3278,855,781
3279,793,748
3280,841,790
3281,859,735
3282,809,733
3283,805,825
3284,827,750
3285,802,750
3286,824,763
3287,853,729
3288,813,750
3289,820,722
3290,839,799
3291,937,701
3292,819,744
3293,817,766
3294,856,758
3295,811,792
3296,811,740
3297,821,793
3298,825,763
3299,821,808
3300,804,776
3301,800,784
3302,795,753
3303,856,730
3304,821,741
3305,789,728
3306,826,815
3307,920,718
3308,807,716
3309,827,769
3310,851,697
3311,796,792
3312,820,744
3313,849,728
3314,783,747
3315,850,749
3316,780,774
3317,804,795
3318,819,752
3319,801,768
3320,855,764
3321,801,745
3322,829,766
3323,851,755
3324,851,726
3325,858,748
3326,831,734
3327,830,770
3328,803,753
3329,829,762
3330,811,747
3331,828,746
3332,806,798
3333,823,775
3334,822,794
3335,816,765
3336,837,734
3337,789,751
3338,825,755
3339,851,759
3340,858,766
3341,874,712
3342,795,731
3343,844,763
3344,815,732
3345,845,775
3346,850,710
3347,822,725
3348,808,793
3349,867,744
3350,760,767
3351,801,808
3352,855,764
3353,807,754
3354,838,809
3355,866,726
3356,784,763
3357,827,812
3358,917,705
3359,815,735
3360,841,801
3361,838,746
3362,826,744
3363,862,707
3364,821,728
3365,834,743
3366,795,738
3367,812,799
3368,820,726
3369,829,796
3370,848,712
3371,802,824
3372,861,754
3373,796,764
3374,833,806
3375,844,763
3376,781,744
3377,812,808
3378,867,718
3379,815,739
3380,836,778
3381,886,776
3382,833,714
3383,807,785
3384,820,736
3385,855,756
3386,819,734
3387,818,848
3388,877,737
3389,775,788
3390,828,761
3391,876,744
3392,833,765
3393,818,737
3394,822,772
3395,860,743
3396,859,727
3397,866,726
3398,848,723
3399,809,762
3400,825,771
3401,829,796
3402,793,744
3403,827,799
3404,855,770
3405,786,786
3406,795,799
3407,884,717
3408,844,756
3409,807,747
3410,831,759
3411,831,751
3412,866,718
3413,854,740
3414,862,733
3415,843,703
3416,797,769
3417,843,751
3418,840,787
3419,833,747
3420,831,754
3421,817,776
3422,800,789
3423,817,724
3424,840,721
3425,804,747
3426,832,771
3427,819,760
3428,844,783
3429,862,744
3430,861,745
3431,849,741
3432,805,786
3433,875,701
3434,796,775
3435,851,745
3436,847,716
3437,814,741
3438,817,758
3439,783,784
3440,866,731
3441,824,733
3442,794,815
3443,848,783
3444,797,742
3445,796,836
3446,874,736
3447,850,721
3448,809,819
3449,843,751
3450,779,769
3451,861,804
3452,831,754
3453,798,708
3454,837,767
3455,823,787
3456,827,756
3457,817,782
3458,824,762
3459,818,765
3460,813,790
3461,803,785
3462,821,787
3463,836,754
3464,841,733
3465,804,733
3466,855,791
3467,848,720
3468,838,792
3469,924,702
3470,821,714
3471,808,826
3472,860,722
3473,816,732
3474,810,818
3475,880,689
3476,788,736
3477,804,798
3478,856,767
3479,787,776
3480,855,701
3481,806,803
3482,875,804
3483,813,765
3484,818,751
3485,847,751
3486,860,752
3487,826,736
3488,811,777
3489,840,751
3490,848,769
3491,840,728
3492,844,730
3493,828,713
3494,823,741
3495,810,765
3496,846,730
3497,806,795
3498,883,735
3499,778,786
3500,811,814
3501,864,728
3502,805,725
3503,845,764
3504,849,745
3505,829,772
3506,849,781
3507,863,713
3508,830,728
3509,835,716
3510,825,716
3511,805,773
3512,841,737
3513,795,755
3514,830,753
3515,815,753
3516,806,786
3517,822,797
3518,818,772
3519,844,742
3520,825,737
3521,810,750
3522,821,790
3523,827,758
3524,841,744
3525,870,765
3526,841,717
3527,825,741
3528,820,742
3529,824,773
3530,872,737
3531,831,742
3532,829,738
3533,796,739
3534,790,794
3535,830,760
3536,799,750
3537,832,739
3538,830,761
3539,805,826
3540,847,755
3541,817,745
3542,821,808
3543,900,740
3544,818,766
3545,861,740
3546,826,751
3547,856,739
3548,831,740
3549,841,728
3550,815,749
3551,803,775
3552,842,719
3553,811,753
3554,819,745
3555,807,766
3556,816,785
3557,812,785
3558,794,762
3559,846,753
3560,831,734
3561,831,725
3562,794,812
3563,878,743
3564,862,705
3565,815,803
3566,875,688
3567,780,778
3568,811,808
3569,875,744
3570,805,733
3571,824,791
3572,864,741
3573,780,760
3574,820,832
3575,867,716
3576,788,745
3577,813,769
3578,869,760
3579,786,766
3580,825,788
3581,883,749
3582,858,730
3583,819,732
3584,819,759
3585,834,755
3586,839,758
3587,837,721
3588,823,744
3589,834,743
3590,801,792
3591,803,773
3592,845,727
3593,798,733
3594,835,818
3595,856,744
3596,798,770
3597,799,794
3598,894,710
3599,797,735
3600,808,793
3601,867,727
3602,812,764
3603,854,737
3604,859,714
3605,815,711
3606,840,733
3607,811,762
3608,841,746
3609,855,784
3610,826,735
3611,832,774
3612,826,796
3613,806,771
3614,818,762
3615,863,723
3616,819,779
3617,842,751
3618,814,763
3619,861,733
3620,849,749
3621,851,734
3622,842,739
3623,809,759
3624,812,709
3625,782,752
3626,858,769
3627,838,735
3628,792,763
3629,812,762
3630,793,759
3631,837,735
3632,842,735
3633,814,769
3634,841,789
3635,825,742
3636,818,779
3637,872,746
3638,845,707
3639,790,796
3640,861,713
3641,821,754
3642,828,792
3643,914,704
3644,807,731
3645,799,804
3646,875,778
3647,820,758
3648,828,738
3649,822,749
3650,835,793
3651,811,785
3652,802,776
3653,807,772
3654,834,748
3655,819,732
3656,805,734
3657,817,775
3658,826,750
3659,824,743
3660,860,716
3661,828,692
3662,794,797
3663,837,735
3664,813,713
3665,817,797
3666,841,789
3667,795,786
3668,785,853
3669,866,823
3670,805,752
3671,848,746
3672,794,771
3673,853,735
3674,815,752
3675,830,784
3676,920,754
3677,852,732
3678,848,719
3679,816,772
3680,835,747
3681,823,775
3682,837,744
3683,822,739
3684,814,756
3685,810,765
3686,809,782
3687,807,744
3688,804,796
3689,855,722
3690,805,770
3691,804,829
3692,867,724
3693,816,742
3694,847,777
3695,886,707
3696,783,756
3697,835,799
3698,879,718
3699,831,741
3700,844,736
3701,859,709
3702,813,739
3703,818,794
3704,858,717
3705,780,746
3706,899,782
3707,818,798
3708,789,807
3709,815,767
3710,834,752
3711,845,731
3712,806,764
3713,836,740
3714,828,755
3715,871,740
3716,867,733
3717,837,725
3718,826,740
3719,824,790
3720,826,803
3721,868,719
3722,837,748
3723,800,786
3724,832,755
3725,773,776
3726,827,748
3727,856,688
3728,832,778
3729,842,705
3730,795,784
3731,858,758
3732,852,724
3733,824,776
3734,872,731
3735,820,728
3736,782,792
3737,870,736
3738,856,720
3739,809,767
3740,861,725
3741,825,764
3742,793,767
3743,842,749
3744,839,759
3745,826,737
3746,824,790
3747,834,769
3748,833,771
3749,839,769
3750,866,742
3751,820,744
3752,803,756
3753,832,754
3754,878,772
3755,850,736
3756,807,768
3757,868,713
3758,793,737
3759,781,815
3760,872,735
3761,801,738
3762,809,828
3763,858,758
3764,776,780
3765,798,834
3766,881,714
3767,812,721
3768,820,740
3769,829,763
3770,851,769
3771,873,735
3772,857,744
3773,864,710
3774,817,752
3775,818,776
3776,848,737
3777,822,750
3778,825,755
3779,818,771
3780,807,781
3781,810,772
3782,800,751
3783,851,756
3784,829,745
3785,822,801
3786,878,772
3787,813,738
3788,867,807
3789,921,716
3790,813,713
3791,799,799
3792,875,697
3793,793,735
3794,844,764
3795,881,719
3796,809,742
3797,812,789
3798,826,740
3799,817,751
3800,818,774
3801,831,720
3802,791,791
3803,838,764
3804,852,740
3805,823,743
3806,898,764
3807,818,779
3808,810,755
3809,831,747
3810,854,742
3811,814,731
3812,837,735
3813,829,751
3814,811,775
3815,836,750
3816,813,735
3817,814,793
3818,858,776
3819,785,777
3820,792,789
3821,873,732
3822,851,747
3823,839,765
3824,805,725
3825,820,752
3826,874,711
3827,825,730
3828,849,760
3829,854,691
3830,785,770
3831,804,750
3832,793,740
3833,811,748
3834,832,793
3835,813,781
3836,817,762
3837,814,766
3838,852,748
3839,831,751
3840,801,741
3841,818,763
3842,857,755
3843,858,724
3844,865,723
3845,843,727
3846,830,759
3847,822,765
3848,824,734
3849,818,745
3850,815,743
3851,807,809
3852,801,736
3853,779,808
3854,844,766
3855,821,701
3856,797,809
3857,884,746
3858,823,738
3859,838,811
3860,849,760
3861,819,737
3862,829,798
3863,870,735
3864,807,732
3865,822,812
3866,910,717
3867,802,737
3868,833,776
3869,803,819
3870,803,767
3871,864,737
3872,802,766
3873,837,737
3874,812,779
3875,822,769
3876,850,752
3877,863,753
3878,838,720
3879,818,774
3880,839,756
3881,810,735
3882,821,793
3883,807,809
3884,800,742
3885,785,842
3886,863,723
3887,806,735
3888,803,815
3889,874,720
3890,768,772
3891,791,805
3892,846,729
3893,782,755
3894,850,767
3895,838,734
3896,815,747
3897,876,769
3898,870,736
3899,853,730
3900,838,731
3901,827,743
3902,804,780
3903,814,748
3904,814,763
3905,830,736
3906,826,766
3907,805,783
3908,810,789
3909,795,789
3910,817,749
3911,833,753
3912,868,709
3913,783,744
3914,854,778
3915,916,723
3916,831,721
3917,844,734
3918,832,739
3919,769,771
3920,830,743
3921,808,722
3922,796,771
3923,817,752
3924,773,765
3925,814,791
3926,812,750
3927,830,748
3928,840,757
3929,828,722
3930,804,782
3931,892,749
3932,869,730
3933,841,729
3934,816,740
3935,805,754
3936,852,737
3937,810,737
3938,838,744
3939,823,752
3940,820,777
3941,817,777
3942,817,770
3943,854,739
3944,842,736
3945,837,762
3946,828,758
3947,840,743
3948,854,748
3949,870,695
3950,820,751
3951,850,764
3952,828,710
3953,800,790
3954,880,712
3955,806,721
3956,790,815
3957,814,791
3958,776,737
3959,842,729
3960,827,731
3961,826,760
3962,802,761
3963,827,770
3964,833,748
3965,854,742
3966,830,722
3967,801,767
3968,839,728
3969,811,742
3970,846,729
3971,830,755
3972,825,714
3973,807,757
3974,815,771
3975,832,719
3976,817,774
3977,861,749
3978,801,734
3979,773,813
3980,854,748
3981,822,739
3982,854,776
3983,881,749
3984,827,728
3985,809,784
3986,910,692
3987,793,742
3988,805,782
3989,852,701
3990,790,774
3991,818,773
3992,851,766
3993,799,729
3994,814,807
3995,831,765
3996,778,778
3997,889,775
3998,848,712
3999,833,772
4000,820,755
4001,831,759
4002,878,739
4003,868,734
4004,844,730
4005,836,745
4006,837,751
4007,788,732
4008,815,795
4009,903,726
4010,806,753
4011,798,825
4012,831,739
4013,771,769
4014,854,760
4015,846,725
4016,776,757
4017,845,776
4018,874,727
4019,839,728
4020,857,703
4021,831,721
4022,802,756
4023,815,742
4024,828,796
4025,855,754
4026,829,747
4027,823,768
4028,817,772
4029,802,762
4030,824,751
4031,841,735
4032,825,765
4033,834,787
4034,835,750
4035,851,770
4036,864,738
4037,863,737
4038,824,735
4039,819,758
4040,839,781
4041,847,747
4042,819,735
4043,811,745
4044,791,750
4045,785,788
4046,826,743
4047,814,772
4048,842,765
4049,823,740
4050,794,828
4051,859,738
4052,814,732
4053,830,787
4054,916,705
4055,786,755
4056,831,776
4057,855,754
4058,826,719
4059,830,789
4060,888,713
4061,811,749
4062,807,785
4063,851,753
4064,802,754
4065,830,760
4066,822,780
4067,790,787
4068,803,770
4069,823,742
4070,865,736
4071,825,765
4072,842,752
4073,785,802
4074,898,724
4075,837,683
4076,815,786
4077,864,715
4078,789,775
4079,832,803
4080,872,746
4081,803,768
4082,810,858
4083,846,743
4084,757,774
4085,794,806
4086,890,763
4087,857,778
4088,833,722
4089,813,779
4090,870,767
4091,859,729
4092,857,736
4093,827,735
4094,823,771
4095,833,744
4096,832,770
4097,851,742
4098,828,774
4099,815,775
4100,797,773
4101,798,776
4102,824,769
4103,832,726
4104,802,730
4105,819,834
4106,919,737
4107,809,731
4108,851,760
4109,894,691
4110,791,747
4111,794,780
4112,850,735
4113,825,765
4114,861,744
4115,810,704
4116,794,729
4117,797,760
4118,793,734
4119,835,753
4120,825,735
4121,807,794
4122,824,787
4123,832,748
4124,820,760
4125,849,749
4126,882,757
4127,797,788
4128,864,738
4129,823,747
4130,841,736
4131,852,729
4132,829,731
4133,816,738
4134,818,767
4135,851,691
4136,812,744
4137,821,793
4138,817,770
4139,799,770
4140,831,735
4141,819,738
4142,847,750
4143,810,749
4144,811,764
4145,843,760
4146,859,726
4147,828,759
4148,877,743
4149,842,736
4150,824,784
4151,809,712
4152,787,768
4153,835,767
4154,822,771
4155,803,806
4156,794,770
4157,822,741
4158,865,738
4159,844,778
4160,844,734
4161,829,772
4162,866,737
4163,852,737
4164,859,745
4165,829,740
4166,813,778
4167,801,703
4168,794,770
4169,839,735
4170,803,806
4171,827,771
4172,795,739
4173,791,812
4174,847,750
4175,789,757
4176,825,811
4177,843,760
4178,812,732
4179,860,812
4180,919,709
4181,818,738
4182,812,798
4183,851,703
4184,790,756
4185,869,745
4186,812,747
4187,817,766
4188,806,782
4189,796,777
4190,835,742
4191,835,741
4192,817,744
4193,827,775
4194,834,760
4195,836,758
4196,879,743
4197,832,752
4198,833,736
4199,796,804
4200,871,704
4201,797,739
4202,832,791
4203,881,687
4204,789,712
4205,791,816
4206,834,722
4207,788,739
4208,811,783
4209,834,753
4210,795,757
4211,820,809
4212,835,757
4213,842,764
4214,856,747
4215,820,745
4216,822,735
4217,817,731
4218,840,730
4219,823,750
4220,881,753
4221,818,749
4222,808,759
4223,862,742
4224,815,765
4225,832,768
4226,801,791
4227,813,793
4228,817,788
4229,817,744
4230,840,725
4231,827,827
4232,894,704
4233,795,769
4234,854,785
4235,896,716
4236,812,739
4237,822,727
4238,783,764
4239,830,762
4240,831,731
4241,792,760
4242,834,779
4243,849,757
4244,777,839
4245,840,757
4246,820,716
4247,822,791
4248,858,756
4249,824,777
4250,840,751
4251,861,734
4252,887,738
4253,848,739
4254,813,771
4255,829,753
4256,828,764
4257,844,766
4258,810,757
4259,810,759
4260,783,767
4261,820,786
4262,819,750
4263,857,754
4264,808,739
4265,819,810
4266,818,740
4267,799,790
4268,870,745
4269,865,699
4270,802,804
4271,830,762
4272,785,762
4273,845,805
4274,834,779
4275,798,715
4276,815,786
4277,881,749
4278,797,742
4279,851,775
4280,860,729
4281,778,768
4282,795,814
4283,871,728
4284,775,756
4285,914,764
4286,832,731
4287,806,756
4288,835,748
4289,857,746
4290,845,736
4291,861,734
4292,840,717
4293,829,751
4294,810,771
4295,844,712
4296,797,799
4297,819,810
4298,803,779
4299,798,838
4300,826,750
4301,776,737
4302,854,784
4303,855,721
4304,809,761
4305,819,824
4306,898,719
4307,836,746
4308,856,742
4309,839,741
4310,818,774
4311,805,741
4312,819,828
4313,912,775
4314,813,749
4315,808,762
4316,814,773
4317,803,756
4318,839,745
4319,823,767
4320,821,735
4321,839,781
4322,832,752
4323,849,769
4324,862,751
4325,854,725
4326,813,762
4327,793,751
4328,823,810
4329,896,710
4330,788,726
4331,816,765
4332,831,727
4333,772,789
4334,811,717
4335,796,744
4336,822,751
4337,848,796
4338,776,782
4339,821,786
4340,856,721
4341,826,761
4342,844,734
4343,788,727
4344,793,770
4345,921,738
4346,847,708
4347,810,750
4348,814,727
4349,808,753
4350,814,759
4351,834,732
4352,804,733
4353,815,796
4354,800,797
4355,804,772
4356,797,765
4357,827,744
4358,842,722
4359,788,769
4360,833,736
4361,842,747
4362,853,732
4363,851,702
4364,816,765
4365,827,743
4366,793,737
4367,832,791
4368,822,751
4369,811,773
4370,796,829
4371,821,786
4372,787,771
4373,795,812
4374,911,701
4375,800,757
4376,847,778
4377,818,770
4378,866,734
4379,856,731
4380,849,732
4381,836,733
4382,808,759
4383,830,728
4384,827,759
4385,843,750
4386,812,777
4387,795,787
4388,817,790
4389,811,772
4390,850,751
4391,842,755
4392,807,728
4393,814,810
4394,853,732
4395,838,721
4396,852,807
4397,898,724
4398,766,749
4399,841,770
4400,858,739
4401,829,743
4402,802,804
4403,832,753
4404,802,786
4405,804,782
4406,888,721
4407,795,796
4408,831,758
4409,821,740
4410,851,758
4411,867,738
4412,873,716
4413,846,734
4414,823,773
4415,844,748
4416,807,746
4417,848,737
4418,818,767
4419,798,766
4420,822,783
4421,809,763
4422,829,741
4423,878,712
4424,803,758
4425,822,808
4426,895,719
4427,845,755
4428,845,734
4429,850,721
4430,776,769
4431,850,721
4432,804,731
4433,808,761
4434,825,744
4435,793,783
4436,822,784
4437,826,747
4438,820,727
4439,877,774
4440,842,758
4441,827,771
4442,850,750
4443,870,751
4444,865,725
4445,809,732
4446,792,766
4447,824,749
4448,810,739
4449,841,737
4450,797,775
4451,806,785
4452,795,794
4453,819,749
4454,858,720
4455,844,751
4456,812,768
4457,836,739
4458,840,753
4459,867,750
4460,876,696
4461,793,772
4462,825,763
4463,843,705
4464,774,790
4465,873,763
4466,776,761
4467,798,845
4468,822,784
4469,798,744
4470,836,803
4471,883,739
4472,814,730
4473,826,768
4474,863,716
4475,838,745
4476,841,716
4477,804,757
4478,823,752
4479,832,742
4480,820,740
4481,824,819
4482,803,785
4483,813,777
4484,825,757
4485,844,746
4486,829,721
4487,798,758
4488,828,755
4489,849,723
4490,800,787
4491,867,750
4492,804,720
4493,803,836
4494,891,718
4495,819,741
4496,817,779
4497,862,747
4498,769,769
4499,795,808
4500,835,779
4501,864,731
4502,822,722
4503,793,797
4504,870,734
4505,820,734
4506,836,731
4507,834,747
4508,793,763
4509,800,773
4510,842,734
4511,824,765
4512,830,753
4513,814,784
4514,812,771
4515,823,761
4516,832,726
4517,856,726
4518,828,745
4519,817,796
4520,877,718
4521,826,741
4522,824,787
4523,865,718
4524,789,729
4525,814,817
4526,900,720
4527,805,773
4528,827,740
4529,827,780
4530,787,775
4531,827,781
4532,822,757
4533,846,741
4534,842,745
4535,808,751
4536,816,750
4537,868,706
4538,815,727
4539,843,725
4540,819,741
4541,808,771
4542,844,734
4543,741,773
4544,830,728
4545,810,784
4546,822,768
4547,811,746
4548,835,745
4549,841,735
4550,831,767
4551,819,766
4552,848,715
4553,873,741
4554,873,741
4555,860,717
4556,806,705
4557,800,767
4558,817,754
4559,805,763
4560,860,769
4561,842,718
4562,801,817
4563,854,781
4564,784,753
4565,799,796
4566,879,720
4567,798,732
4568,807,786
4569,874,727
4570,840,734
4571,843,748
4572,836,711
4573,822,744
4574,794,782
4575,799,725
4576,825,763
4577,826,744
4578,830,781
4579,813,790
4580,808,792
4581,794,763
4582,845,746
4583,830,742
4584,805,737
4585,804,772
4586,874,752
4587,859,698
4588,827,783
4589,886,702
4590,791,758
4591,806,810
4592,894,718
4593,783,743
4594,828,789
4595,867,758
4596,778,766
4597,794,819
4598,852,719
4599,792,721
4600,806,789
4601,882,743
4602,820,760
4603,857,753
4604,832,743
4605,837,744
4606,812,747
4607,803,772
4608,833,742
4609,820,731
4610,835,733
4611,829,763
4612,811,769
4613,809,777
4614,822,773
4615,851,722
4616,802,757
4617,815,807
4618,886,744
4619,818,746
4620,849,784
4621,890,694
4622,789,735
4623,805,786
4624,871,735
4625,827,754
4626,850,733
4627,856,707
4628,794,718
4629,812,708
4630,806,765
4631,837,744
4632,811,746
4633,817,780
4634,820,760
4635,784,774
4636,850,789
4637,824,753
4638,842,734
4639,830,771
4640,829,753
4641,813,761
4642,868,745
4643,839,718
4644,853,737
4645,828,731
4646,823,776
4647,796,720
4648,789,744
4649,819,775
4650,849,776
4651,765,793
4652,813,772
4653,811,726
4654,856,737
4655,825,742
4656,775,762
4657,826,772
4658,880,706
4659,866,776
4660,910,722
4661,827,691
4662,801,776
4663,832,734
4664,840,759
4665,828,734
4666,826,734
4667,810,786
4668,797,797
4669,800,775
4670,818,747
4671,854,736
4672,827,746
4673,814,760
4674,816,760
4675,843,766
4676,855,748
4677,862,745
4678,852,736
4679,815,737
4680,833,757
4681,838,743
4682,851,748
4683,858,726
4684,798,710
4685,766,825
4686,856,737
4687,821,728
4688,794,811
4689,826,772
4690,777,782
4691,793,842
4692,870,754
4693,788,731
4694,859,793
4695,845,719
4696,799,740
4697,818,800
4698,877,746
4699,877,724
4700,850,706
4701,815,758
4702,799,787
4703,823,736
4704,813,769
4705,829,760
4706,837,763
4707,798,783
4708,813,800
4709,819,777
4710,818,746
4711,813,778
4712,865,728
4713,788,791
4714,805,816
4715,911,733
4716,823,734
4717,833,767
4718,872,720
4719,775,749
4720,827,770
4721,836,743
4722,823,731
4723,837,742
4724,836,714
4725,776,765
4726,805,765
4727,855,782
4728,868,745
4729,805,758
4730,823,788
4731,804,778
4732,832,771
4733,861,743
4734,847,722
4735,806,783
4736,830,722
4737,822,759
4738,850,719
4739,832,736
4740,845,709
4741,842,741
4742,814,765
4743,817,785
4744,855,755
4745,794,755
4746,803,809
4747,815,779
4748,751,789
4749,807,753
4750,844,739
4751,831,766
4752,822,716
4753,789,784
4754,892,740
4755,897,729
4756,833,768
4757,886,711
4758,821,723
4759,782,814
4760,872,719
4761,805,735
4762,823,770
4763,856,762
4764,812,787
4765,798,775
4766,811,750
4767,838,735
4768,804,745
4769,826,762
4770,820,761
4771,865,751
4772,856,764
4773,846,723
4774,853,742
4775,824,788
4776,860,726
4777,823,752
4778,862,695
4779,810,772
4780,865,731
4781,801,738
4782,790,819
4783,831,766
4784,800,735
4785,816,847
4786,892,740
4787,785,751
4788,816,834
4789,864,732
4790,822,715
4791,819,811
4792,891,740
4793,796,769
4794,881,730
4795,832,746
4796,841,720
4797,813,762
4798,806,777
4799,850,731
4800,811,761
4801,824,780
4802,815,778
4803,798,780
4804,814,786
4805,805,767
4806,855,744
4807,830,727
4808,786,804
4809,823,752
4810,839,731
4811,851,795
4812,908,703
4813,795,727
4814,800,818
4815,863,701
4816,788,767
4817,826,778
4818,844,717
4819,785,761
4820,813,795
4821,801,754
4822,811,759
4823,820,712
4824,784,733
4825,809,812
4826,786,743
4827,830,761
4828,858,735
4829,850,735
4830,829,728
4831,794,754
4832,842,752
4833,837,735
4834,834,717
4835,839,734
4836,824,725
4837,815,746
4838,808,755
4839,809,727
4840,808,787
4841,845,758
4842,798,779
4843,813,765
4844,831,733
4845,811,746
4846,829,705
4847,780,752
4848,838,767
4849,831,742
4850,855,753
4851,860,748
4852,848,722
4853,804,780
4854,853,749
4855,801,715
4856,795,777
4857,844,750
4858,824,793
4859,806,788
4860,790,775
4861,822,743
4862,838,728
4863,821,769
4864,830,753
4865,817,762
4866,850,731
4867,851,732
4868,853,725
4869,834,720
4870,819,763
4871,827,740
4872,828,749
4873,830,738
4874,805,763
4875,799,764
4876,787,812
4877,839,764
4878,860,725
4879,804,820
4880,838,767
4881,794,765
4882,829,801
4883,860,748
4884,850,738
4885,846,786
4886,877,725
4887,795,749
4888,824,805
4889,892,713
4890,789,727
4891,805,799
4892,842,764
4893,804,775
4894,832,735
4895,823,762
4896,807,737
4897,820,768
4898,812,744
4899,852,755
4900,858,747
4901,863,742
4902,833,739
4903,846,746
4904,814,721
4905,783,800
4906,805,763
4907,791,722
4908,808,825
4909,864,752
4910,772,734
4911,816,785
4912,858,703
4913,783,767
4914,780,816
4915,844,731
4916,799,754
4917,854,760
4918,860,761
4919,857,777
4920,833,740
4921,836,750
4922,866,725
4923,816,704
4924,828,734
4925,805,785
4926,807,767
4927,847,737
4928,830,758
4929,809,801
4930,809,801
4931,809,773
4932,804,770
4933,846,748
4934,854,739
4935,870,742
4936,803,747
4937,811,776
4938,873,707
4939,823,727
4940,831,755
4941,850,729
4942,769,751
4943,857,722
4944,811,758
4945,821,781
4946,814,778
4947,794,809
4948,820,785
4949,827,743
4950,815,768
4951,852,755
4952,824,720
4953,807,801
4954,907,718
4955,818,721
4956,847,751
4957,848,739
4958,798,758
4959,878,764
4960,816,736
4961,823,744
4962,814,788
4963,808,794
4964,780,766
4965,807,784
4966,866,730
4967,854,746
4968,839,736
4969,825,737
4970,840,737
4971,885,742
4972,872,701
4973,811,763
4974,853,765
4975,832,732
4976,791,813
4977,897,740
4978,780,742
4979,806,825
4980,869,790
4981,807,773
4982,846,746
4983,816,754
4984,836,746
4985,849,765
4986,816,757
4987,865,737
4988,861,746
4989,831,753
4990,819,773
4991,825,743
4992,830,746
4993,846,732
4994,816,749
4995,810,746
4996,795,758
4997,793,776
4998,826,726
4999,802,767
5000,852,744
5001,799,768
5002,798,820
5003,885,742
5004,840,740
5005,838,779
5006,881,732
5007,782,733
5008,828,796
5009,894,715
5010,802,738
5011,816,768
5012,850,717
5013,789,770
5014,804,774
5015,865,716
5016,792,733
5017,870,809
5018,803,784
5019,820,752
5020,843,748
5021,858,729
5022,816,764
5023,819,757
5024,823,770
5025,851,754
5026,849,722
5027,854,723
5028,851,737
5029,800,765
5030,792,744
5031,829,808
5032,876,733
5033,816,748
5034,789,812
5035,834,757
5036,788,759
5037,847,765
5038,850,699
5039,768,759
5040,827,755
5041,860,732
5042,833,733
5043,872,709
5044,825,737
5045,840,748
5046,813,752
5047,812,764
5048,829,758
5049,855,726
5050,805,759
5051,802,782
5052,826,782
5053,813,734
5054,846,731
5055,820,765
5056,849,766
5057,858,764
5058,870,763
5059,878,742
5060,855,730
5061,830,720
5062,797,755
5063,844,753
5064,866,735
5065,829,742
5066,832,736
5067,791,781
5068,810,793
5069,815,728
5070,818,755
5071,875,741
5072,830,708
5073,789,822
5074,880,740
5075,814,744
5076,845,822
5077,840,748
5078,807,741
5079,817,800
5080,898,759
5081,841,738
5082,842,714
5083,819,746
5084,793,773
5085,810,764
5086,822,731
5087,826,776
5088,824,737
5089,818,786
5090,804,771
5091,813,759
5092,832,776
5093,852,730
5094,831,739
5095,825,712
5096,795,801
5097,933,718
5098,826,706
5099,825,777
5100,810,793
5101,766,778
5102,794,797
5103,880,707
5104,785,741
5105,812,851
5106,821,761
5107,755,761
5108,798,821
5109,856,713
5110,797,722
5111,817,793
5112,877,741
5113,812,769
5114,914,745
5115,856,729
5116,807,711
5117,846,753
5118,808,737
5119,812,735
5120,811,760
5121,823,746
5122,794,773
5123,787,775
5124,802,788
5125,801,740
5126,839,705
5127,794,776
5128,843,802
5129,881,734
5130,814,725
5131,855,781
5132,886,719
5133,818,731
5134,818,780
5135,841,700
5136,787,745
5137,829,750
5138,801,730
5139,787,788
5140,820,770
5141,812,750
5142,868,729
5143,831,766
5144,825,729
5145,809,789
5146,838,755
5147,877,768
5148,856,737
5149,829,727
5150,823,774
5151,835,732
5152,801,756
5153,861,746
5154,811,732
5155,825,753
5156,812,767
5157,804,783
5158,825,731
5159,788,759
5160,829,761
5161,832,764
5162,788,758
5163,850,722
5164,811,734
5165,852,734
5166,837,770
5167,812,798
5168,841,750
5169,847,705
5170,812,757
5171,884,687
5172,796,734
5173,815,828
5174,868,729
5175,791,743
5176,825,803
5177,809,789
5178,773,761
5179,818,769
5180,853,745
5181,838,732
5182,809,752
5183,825,773
5184,828,776
5185,855,740
5186,847,736
5187,826,717
5188,831,747
5189,802,779
5190,812,735
5191,841,757
5192,834,738
5193,798,835
5194,855,757
5195,796,749
5196,817,802
5197,852,734
5198,785,735
5199,816,795
5200,876,743
5201,830,730
5202,830,766
5203,858,734
5204,798,708
5205,774,801
5206,822,757
5207,841,733
5208,814,736
5209,824,766
5210,804,777
5211,804,787
5212,802,744
5213,834,737
5214,841,727
5215,817,754
5216,837,778
5217,831,752
5218,871,739
5219,856,702
5220,856,725
5221,817,735
5222,788,819
5223,841,757
5224,794,740
5225,841,800
5226,878,743
5227,757,780
5228,804,822
5229,834,720
5230,808,735
5231,810,752
5232,837,742
5233,823,753
5234,882,744
5235,870,736
5236,817,730
5237,841,712
5238,797,750
5239,833,748
5240,824,724
5241,832,721
5242,804,755
5243,815,781
5244,785,783
5245,817,777
5246,872,763
5247,815,776
5248,841,741
5249,846,776
5250,865,747
5251,863,728
5252,857,724
5253,822,728
5254,795,838
5255,870,721
5256,800,750
5257,870,754
5258,842,718
5259,779,789
5260,811,758
5261,791,767
5262,860,759
5263,820,748
5264,812,764
5265,842,784
5266,845,749
5267,813,745
5268,830,746
5269,845,731
5270,823,793
5271,851,713
5272,808,753
5273,871,707
5274,837,747
5275,854,741
5276,811,739
5277,786,776
5278,833,731
5279,835,780
5280,842,732
5281,820,792
5282,807,780
5283,820,765
5284,820,747
5285,865,735
5286,848,749
5287,780,729
5288,845,754
5289,883,711
5290,808,768
5291,857,704
5292,809,718
5293,806,825
5294,860,759
5295,785,742
5296,832,776
5297,898,726
5298,781,788
5299,797,784
5300,801,765
5301,825,736
5302,836,723
5303,792,792
5304,882,739
5305,821,736
5306,842,780
5307,907,751
5308,843,720
5309,826,759
5310,817,745
5311,838,740
5312,824,741
5313,825,742
5314,811,768
5315,793,770
5316,793,790
5317,804,746
5318,839,693
5319,810,803
5320,845,754
5321,791,750
5322,839,780
5323,909,681
5324,797,706
5325,823,762
5326,829,726
5327,812,732
5328,826,754
5329,845,731
5330,822,729
5331,803,745
5332,831,744
5333,778,752
5334,806,714
5335,823,770
5336,821,748
5337,796,779
5338,810,751
5339,810,750
5340,838,748
5341,869,737
5342,829,750
5343,810,750
5344,817,744
5345,859,720
5346,854,723
5347,835,708
5348,822,716
5349,818,760
5350,772,748
5351,819,759
5352,860,704
5353,798,750
5354,793,779
5355,799,759
5356,770,753
5357,862,717
5358,807,737
5359,850,741
5360,840,723
5361,812,768
5362,859,733
5363,854,705
5364,827,737
5365,867,712
5366,752,733
5367,823,791
5368,821,748
5369,816,700
5370,803,757
5371,836,734
5372,784,779
5373,851,752
5374,840,707
5375,814,716
5376,820,758
5377,813,773
5378,813,741
5379,840,736
5380,852,717
5381,838,710
5382,784,744
5383,844,720
5384,799,767
5385,869,720
5386,830,688
5387,813,766
5388,852,733
5389,759,732
5390,836,780
5391,850,741
5392,811,731
5393,804,849
5394,859,791
5395,809,771
5396,799,729
5397,859,708
5398,834,759
5399,828,691
5400,786,789
5401,910,679
5402,813,697
5403,841,719
5404,803,721
5405,798,765
5406,830,726
5407,827,756
5408,833,730
5409,810,768
5410,789,763
5411,806,768
5412,788,747
5413,821,737
5414,854,735
5415,772,725
5416,806,825
5417,907,704
5418,834,722
5419,847,751
5420,883,669
5421,785,749
5422,806,758
5423,845,718
5424,800,739
5425,809,735
5426,834,732
5427,774,776
5428,826,754
5429,834,716
5430,814,729
5431,878,763
5432,811,773
5433,825,744
5434,841,727
5435,857,729
5436,833,694
5437,804,733
5438,799,751
5439,833,740
5440,829,737
5441,819,735
5442,791,725
5443,807,735
5444,820,755
5445,814,729
5446,886,690
5447,760,726
5448,803,796
5449,856,733
5450,833,744
5451,877,719
5452,837,692
5453,798,732
5454,804,724
5455,818,730
5456,834,743
5457,847,675
5458,788,757
5459,815,726
5460,791,737
5461,789,780
5462,887,697
5463,814,709
5464,795,798
5465,815,733
5466,803,714
5467,814,727
5468,845,702
5469,827,712
5470,815,716
5471,824,724
5472,816,721
5473,835,684
5474,830,721
5475,814,706
5476,811,744
5477,784,744
5478,846,684
5479,773,746
5480,827,736
5481,790,780
5482,829,763
5483,828,711
5484,812,750
5485,892,693
5486,783,732
5487,818,784
5488,834,743
5489,818,692
5490,823,760
5491,884,682
5492,794,727
5493,823,717
5494,806,717
5495,821,760
5496,818,756
5497,811,750
5498,793,756
5499,811,740
5500,820,722
5501,839,724
5502,783,757
5503,800,748
5504,806,736
5505,844,719
5506,850,708
5507,830,719
5508,797,716
5509,808,735
5510,817,759
5511,851,714
5512,803,705
5513,784,820
5514,860,732
5515,754,744
5516,801,784
5517,882,680
5518,783,739
5519,809,756
5520,830,717
5521,825,705
5522,853,719
5523,886,683
5524,806,710
5525,824,790
5526,824,674
5527,789,732
5528,828,746
5529,796,718
5530,777,754
5531,855,790
5532,782,730
5533,840,728
5534,835,758
5535,812,728
5536,808,745
5537,850,742
5538,839,714
5539,843,707
5540,849,704
5541,802,741
5542,801,777
5543,870,702
5544,801,732
5545,804,772
5546,844,737
5547,777,769
5548,812,755
5549,826,691
5550,782,775
5551,828,730
5552,771,746
5553,859,735
5554,873,700
5555,844,735
5556,873,734
5557,811,713
5558,801,756
5559,855,765
5560,803,723
5561,827,736
5562,800,767
5563,790,747
5564,803,743
5565,829,721
5566,819,740
5567,802,737
5568,827,766
5569,823,731
5570,859,719
5571,846,727
5572,846,701
5573,797,729
5574,813,729
5575,840,706
5576,812,723
5577,805,694
5578,788,758
5579,822,748
5580,804,723
5581,794,753
5582,870,696
5583,777,706
5584,786,825
5585,859,735
5586,797,724
5587,821,770
5588,912,690
5589,808,710
5590,788,782
5591,870,697
5592,760,726
5593,838,681
5594,798,706
5595,814,740
5596,812,749
5597,792,740
5598,829,689
5599,805,748
5600,778,777
5601,807,748
5602,804,759
5603,792,745
5604,831,726
5605,835,719
5606,825,702
5607,798,778
5608,861,696
5609,800,712
5610,833,769
5611,822,748
5612,772,735
5613,797,779
5614,871,664
5615,753,717
5616,785,777
5617,844,734
5618,754,760
5619,785,772
5620,857,681
5621,819,693
5622,876,759
5623,841,720
5624,814,734
5625,838,722
5626,836,725
5627,820,706
5628,796,742
5629,795,747
5630,855,716
5631,801,739
5632,805,752
5633,789,771
5634,797,760
5635,790,749
5636,787,734
5637,835,719
5638,774,711
5639,813,763
5640,864,714
5641,822,704
5642,854,725
5643,867,688
5644,807,706
5645,800,737
5646,817,669
5647,798,744
5648,811,705
5649,809,736
5650,794,762
5651,789,733
5652,795,751
5653,855,720
5654,809,739
5655,792,743
5656,827,744
5657,845,692
5658,820,762
5659,878,690
5660,861,721
5661,815,754
5662,808,738
5663,818,736
5664,837,720
5665,797,739
5666,801,743
5667,803,745
5668,798,733
5669,827,688
5670,799,744
5671,804,730
5672,818,737
5673,824,741
5674,843,692
5675,841,723
5676,867,697
5677,793,719
5678,771,762
5679,841,713
5680,833,692
5681,796,764
5682,873,720
5683,793,728
5684,806,750
5685,782,690
5686,805,747
5687,816,698
5688,790,801
5689,832,743
5690,841,713
5691,857,710
5692,833,711
5693,801,734
5694,807,737
5695,820,733
5696,845,719
5697,834,707
5698,807,707
5699,798,708
5700,802,750
5701,784,719
5702,841,724
5703,795,713
5704,791,819
5705,824,741
5706,777,733
5707,823,777
5708,915,672
5709,810,703
5710,783,775
5711,857,712
5712,811,693
5713,832,752
5714,884,665
5715,777,715
5716,773,779
5717,824,726
5718,818,729
5719,882,753
5720,830,759
5721,805,766
5722,792,743
5723,803,737
5724,856,700
5725,828,723
5726,808,712
5727,816,738
5728,860,724
5729,837,700
5730,849,699
5731,825,699
5732,829,727
5733,789,798
5734,908,688
5735,786,726
5736,830,777
5737,835,736
5738,759,773
5739,812,774
5740,864,704
5741,810,729
5742,822,740
5743,802,714
5744,811,700
5745,846,697
5746,824,678
5747,831,696
5748,833,702
5749,776,749
5750,842,722
5751,820,698
5752,795,750
5753,792,774
5754,838,793
5755,796,744
5756,798,733
5757,830,716
5758,783,743
5759,827,725
5760,808,748
5761,849,706
5762,860,727
5763,834,702
5764,835,702
5765,782,782
5766,874,706
5767,812,729
5768,848,725
5769,794,727
5770,797,765
5771,787,748
5772,800,734
5773,862,706
5774,801,706
5775,821,772
5776,877,733
5777,839,710
5778,823,767
5779,905,679
5780,803,699
5781,803,772
5782,837,714
5783,808,732
5784,844,726
5785,830,753
5786,790,758
5787,787,741
5788,812,696
5789,833,702
5790,806,726
5791,836,732
5792,835,728
5793,858,699
5794,851,717
5795,835,689
5796,810,725
5797,795,749
5798,811,731
5799,825,721
5800,837,712
5801,773,808
5802,846,758
5803,760,742
5804,806,761
5805,893,672
5806,771,734
5807,834,787
5808,888,710
5809,830,711
5810,848,741
5811,865,680
5812,787,690
5813,782,767
5814,876,669
5815,770,727
5816,816,737
5817,834,710
5818,768,752
5819,851,772
5820,804,723
5821,817,708
5822,798,737
5823,819,728
5824,836,741
5825,846,715
5826,847,697
5827,843,705
5828,819,699
5829,782,737
5830,835,774
5831,872,704
5832,809,712
5833,814,792
5834,839,729
5835,762,739
5836,797,779
5837,866,704
5838,795,741
5839,843,733
5840,849,724
5841,835,724
5842,854,733
5843,851,714
5844,824,677
5845,756,734
5846,804,748
5847,849,755
5848,832,710
5849,791,730
5850,791,758
5851,812,756
5852,805,736
5853,828,694
5854,806,735
5855,826,741
5856,839,749
5857,851,710
5858,852,715
5859,849,700
5860,818,699
5861,781,743
5862,826,747
5863,828,733
5864,826,714
5865,814,726
5866,790,732
5867,762,763
5868,816,701
5869,824,753
5870,835,732
5871,839,708
5872,777,760
5873,865,729
5874,833,695
5875,826,736
5876,876,693
5877,782,739
5878,839,744
5879,861,696
5880,818,715
5881,780,733
5882,791,753
5883,788,753
5884,779,752
5885,834,717
5886,806,739
5887,818,733
5888,829,739
5889,852,739
5890,847,737
5891,846,711
5892,835,699
5893,801,746
5894,847,707
5895,795,754
5896,861,693
5897,809,683
5898,772,770
5899,830,735
5900,743,732
5901,829,774
5902,835,732
5903,787,705
5904,793,822
5905,892,705
5906,818,718
5907,832,757
5908,889,653
5909,761,746
5910,858,730
5911,828,721
5912,852,697
5913,821,710
5914,802,704
5915,791,757
5916,802,744
5917,833,714
5918,819,742
5919,839,715
5920,798,756
5921,801,735
5922,839,741
5923,832,719
5924,854,706
5925,833,717
5926,776,701
5927,813,779
5928,906,673
5929,799,694
5930,817,751
5931,845,720
5932,759,727
5933,836,756
5934,858,701
5935,816,709
5936,796,777
5937,827,725
5938,775,725
5939,830,737
5940,866,676
5941,805,737
5942,807,726
5943,807,696
5944,828,701
5945,835,680
5946,804,699
5947,789,731
5948,780,749
5949,821,717
5950,797,746
5951,819,728
5952,807,751
5953,807,748
5954,797,744
5955,818,710
5956,853,718
5957,898,715
5958,764,704
5959,789,784
5960,878,702
5961,804,703
5962,819,719
5963,817,677
5964,774,766
5965,824,689
5966,798,745
5967,818,708
5968,833,726
5969,785,766
5970,827,733
5971,818,695
5972,848,703
5973,851,707
5974,787,730
5975,806,722
5976,831,714
5977,821,693
5978,836,707
5979,806,733
5980,785,734
5981,833,706
5982,808,734
5983,825,736
5984,811,770
5985,795,749
5986,806,751
5987,823,719
5988,846,688
5989,839,709
5990,790,735
5991,826,742
5992,829,727
5993,827,709
5994,820,689
5995,770,764
5996,831,717
5997,823,702
5998,811,783
5999,818,708
6000,786,733
6001,789,799
6002,855,730
6003,791,727
6004,836,744
6005,860,717
6006,779,715
6007,811,770
6008,905,681
6009,788,709
6010,852,722
6011,813,729
6012,782,748
6013,838,730
6014,822,747
6015,822,716
6016,802,746
6017,791,737
6018,799,738
6019,824,724
6020,845,675
6021,795,786
6022,868,691
6023,793,714
6024,842,780
6025,884,666
6026,788,703
6027,802,791
6028,824,705
6029,798,686
6030,788,754
6031,865,654
6032,763,746
6033,796,784
6034,821,726
6035,811,727
6036,841,682
6037,806,808
6038,873,734
6039,807,721
6040,842,700
6041,816,717
6042,821,720
6043,788,745
6044,790,737
6045,838,727
6046,793,752
6047,822,715
6048,812,751
6049,808,765
6050,798,743
6051,813,712
6052,836,697
6053,809,764
6054,863,704
6055,764,720
6056,840,729
6057,841,704
6058,804,719
6059,794,729
6060,785,718
6061,780,726
6062,837,736
6063,809,697
6064,811,769
6065,817,732
6066,756,775
6067,802,740
6068,834,686
6069,799,767
6070,828,714
6071,819,691
6072,841,749
6073,895,712
6074,867,687
6075,826,699
6076,811,748
6077,817,731
6078,827,744
6079,824,713
6080,806,740
6081,769,770
6082,807,760
6083,809,744
6084,821,720
6085,840,729
6086,804,703
6087,800,751
6088,848,693
6089,825,721
6090,882,719
6091,849,685
6092,784,780
6093,843,694
6094,799,713
6095,795,762
6096,876,701
6097,769,737
6098,781,803
6099,844,761
6100,790,717
6101,847,687
6102,790,743
6103,803,761
6104,800,740
6105,852,735
6106,859,716
6107,849,711
6108,813,709
6109,812,748
6110,835,720
6111,815,731
6112,828,713
6113,800,716
6114,820,719
6115,817,746
6116,796,742
6117,845,702
6118,788,766
6119,865,706
6120,779,743
6121,794,784
6122,882,719
6123,814,689
6124,821,748
6125,830,716
6126,786,710
6127,778,754
6128,869,685
6129,797,698
6130,790,723
6131,827,699
6132,766,761
6133,833,724
6134,845,720
6135,792,738
6136,795,752
6137,807,746
6138,812,735
6139,833,717
6140,819,699
6141,810,767
6142,836,707
6143,819,735
6144,844,701
6145,818,699
6146,828,730
6147,820,724
6148,796,742
6149,802,709
6150,792,788
6151,861,703
6152,773,755
6153,791,771
6154,842,724
6155,832,713
6156,835,702
6157,808,728
6158,802,727
6159,817,721
6160,825,709
6161,856,721
6162,845,672
6163,797,716
6164,803,782
6165,868,741
6166,820,737
6167,813,745
6168,809,773
6169,805,774
6170,791,750
6171,842,709
6172,848,711
6173,796,752
6174,840,717
6175,814,746
6176,839,720
6177,813,697
6178,813,709
6179,804,735
6180,785,717
6181,794,719
6182,813,741
6183,831,716
6184,789,763
6185,801,716
6186,794,758
6187,857,721
6188,840,680
6189,780,805
6190,872,690
6191,800,711
6192,825,757
6193,856,721
6194,788,682
6195,809,764
6196,803,782
6197,789,694
6198,814,811
6199,813,745
6200,770,744
6201,792,821
6202,855,737
6203,807,732
6204,847,713
6205,821,742
6206,826,718
6207,819,748
6208,839,713
6209,832,707
6210,844,711
6211,818,701
6212,781,748
6213,831,739
6214,811,717
6215,805,763
6216,849,743
6217,766,737
6218,780,810
6219,879,685
6220,803,681
6221,811,798
6222,863,679
6223,767,748
6224,850,757
6225,897,732
6226,820,705
6227,818,721
6228,766,782
6229,877,712
6230,795,728
6231,818,779
6232,863,799
6233,799,763
6234,803,742
6235,819,728
6236,849,695
6237,800,747
6238,834,703
6239,802,752
6240,847,703
6241,853,706
6242,831,704
6243,820,701
6244,773,790
6245,831,739
6246,760,715
6247,797,779
6248,843,716
6249,758,756
6250,773,767
6251,858,698
6252,824,703
6253,824,741
6254,838,686
6255,778,760
6256,853,700
6257,844,710
6258,846,711
6259,833,678
6260,792,755
6261,823,740
6262,847,782
6263,834,729
6264,791,776
6265,807,763
6266,791,760
6267,802,730
6268,838,711
6269,814,741
6270,815,705
6271,819,762
6272,850,701
6273,834,686
6274,847,706
6275,837,702
6276,778,800
6277,854,683
6278,791,762
6279,819,731
6280,807,741
6281,774,772
6282,796,712
6283,793,755
6284,873,707
6285,813,714
6286,809,733
6287,849,729
6288,840,674
6289,829,758
6290,877,679
6291,766,693
6292,803,813
6293,823,740
6294,792,721
6295,819,748
6296,826,739
6297,820,769
6298,796,759
6299,803,724
6300,844,714
6301,803,733
6302,824,692
6303,808,740
6304,862,728
6305,845,718
6306,851,711
6307,831,703
6308,808,749
6309,782,739
6310,823,747
6311,825,696
6312,797,778
6313,838,740
6314,765,743
6315,787,795
6316,873,707
6317,775,717
6318,820,769
6319,873,721
6320,815,711
6321,853,764
6322,883,677
6323,804,707
6324,778,771
6325,822,733
6326,823,737
6327,806,720
6328,807,745
6329,806,728
6330,810,755
6331,803,755
6332,838,700
6333,822,733
6334,816,724
6335,829,753
6336,817,735
6337,844,723
6338,868,713
6339,846,720
6340,791,718
6341,791,777
6342,872,708
6343,788,709
6344,821,742
6345,855,699
6346,774,743
6347,781,773
6348,855,701
6349,819,729
6350,800,746
6351,834,747
6352,804,749
6353,852,724
6354,823,698
6355,823,706
6356,848,708
6357,798,729
6358,818,726
6359,809,710
6360,793,764
6361,873,724
6362,795,739
6363,795,743
6364,808,715
6365,818,730
6366,802,718
6367,819,759
6368,814,745
6369,825,725
6370,824,728
6371,851,725
6372,787,701
6373,789,754
6374,842,711
6375,796,743
6376,833,703
6377,815,704
6378,779,745
6379,783,764
6380,810,747
6381,864,742
6382,822,692
6383,773,775
6384,822,715
6385,827,698
6386,845,718
6387,852,695
6388,780,720
6389,793,737
6390,829,715
6391,797,746
6392,825,707
6393,805,720
6394,802,742
6395,790,755
6396,816,716
6397,810,727
6398,795,714
6399,809,784
6400,813,722
6401,824,750
6402,836,709
6403,841,709
6404,786,696
6405,810,720
6406,820,742
6407,844,721
6408,828,682
6409,764,767
6410,846,703
6411,766,734
6412,808,777
6413,864,742
6414,779,693
6415,805,820
6416,847,699
6417,803,718
6418,815,776
6419,893,676
6420,783,724
6421,800,758
6422,869,723
6423,838,712
6424,830,712
6425,830,708
6426,794,751
6427,810,766
6428,821,721
6429,832,727
6430,823,723
6431,802,759
6432,814,739
6433,828,738
6434,844,719
6435,843,708
6436,862,714
6437,768,707
6438,816,791
6439,873,686
6440,800,704
6441,807,778
6442,851,698
6443,768,722
6444,809,758
6445,870,692
6446,796,708
6447,799,765
6448,815,724
6449,799,734
6450,831,752
6451,866,689
6452,813,730
6453,800,731
6454,819,727
6455,819,712
6456,894,745
6457,829,720
6458,800,737
6459,792,739
6460,815,729
6461,830,723
6462,798,717
6463,830,768
6464,807,748
6465,813,737
6466,835,699
6467,842,705
6468,891,701
6469,747,714
6470,822,763
6471,870,701
6472,811,725
6473,842,734
6474,832,717
6475,775,781
6476,834,688
6477,791,742
6478,819,740
6479,828,743
6480,782,731
6481,829,744
6482,844,699
6483,816,741
6484,851,715
6485,834,737
6486,798,742
6487,833,719
6488,819,712
6489,805,715
6490,808,727
6491,797,755
6492,797,722
6493,815,715
6494,812,728
6495,816,781
6496,797,743
6497,813,728
6498,802,741
6499,825,700
6500,851,696
6501,776,732
6502,826,707
6503,860,736
6504,848,702
6505,829,681
6506,783,744
6507,860,733
6508,772,706
6509,792,768
6510,819,740
6511,793,754
6512,788,814
6513,829,744
6514,791,719
6515,836,781
6516,896,696
6517,765,712
6518,809,784
6519,900,671
6520,800,690
6521,883,729
6522,797,722
6523,810,750
6524,792,739
6525,825,723
6526,801,722
6527,833,759
6528,798,755
6529,802,736
6530,814,748
6531,829,693
6532,801,745
6533,851,720
6534,802,699
6535,839,761
6536,892,674
6537,790,709
6538,821,774
6539,837,722
6540,759,714
6541,832,735
6542,859,680
6543,793,751
6544,791,786
6545,827,725
6546,757,734
6547,821,708
6548,812,765
6549,835,747
6550,824,717
6551,830,729
6552,843,707
6553,817,693
6554,829,690
6555,813,711
6556,785,718
6557,818,720
6558,798,707
6559,825,744
6560,782,757
6561,789,760
6562,791,750
6563,798,731
6564,833,756
6565,861,692
6566,793,721
6567,817,735
6568,882,688
6569,818,711
6570,811,714
6571,807,708
6572,762,730
6573,832,695
6574,796,707
6575,808,758
6576,816,740
6577,791,755
6578,804,759
6579,800,693
6580,830,735
6581,840,718
6582,837,723
6583,819,753
6584,882,732
6585,878,714
6586,823,705
6587,807,720
6588,790,734
6589,834,711
6590,822,721
6591,822,740
6592,804,761
6593,806,751
6594,792,736
6595,806,720
6596,842,742
6597,829,719
6598,812,715
6599,830,722
6600,828,758
6601,866,728
6602,852,687
6603,785,760
6604,846,712
6605,810,688
6606,781,769
6607,881,685
6608,792,705
6609,782,782
6610,874,769
6611,790,750
6612,825,696
6613,798,736
6614,828,718
6615,809,735
6616,804,725
6617,841,712
6618,852,720
6619,823,703
6620,822,750
6621,810,721
6622,816,718
6623,849,723
6624,829,699
6625,803,696
6626,822,705
6627,801,763
6628,816,721
6629,785,768
6630,849,696
6631,786,775
6632,781,803
6633,866,728
6634,792,688
6635,840,770
6636,872,672
6637,763,714
6638,806,786
6639,900,689
6640,790,693
6641,807,745
6642,855,681
6643,766,713
6644,797,750
6645,853,698
6646,776,732
6647,841,773
6648,812,742
6649,811,739
6650,813,725
6651,838,712
6652,819,714
6653,793,720
6654,818,738
6655,853,715
6656,832,711
6657,857,701
6658,822,701
6659,801,763
6660,750,713
6661,825,766
6662,854,697
6663,799,707
6664,791,794
6665,815,744
6666,783,760
6667,812,715
6668,835,674
6669,790,734
6670,813,734
6671,807,709
6672,816,719
6673,864,686
6674,825,702
6675,831,721
6676,825,768
6677,824,714
6678,791,740
6679,820,734
6680,812,761
6681,795,758
6682,803,755
6683,812,733
6684,821,713
6685,812,743
6686,825,743
6687,826,733
6688,857,710
6689,864,729
6690,842,713
6691,818,670
6692,783,729
6693,864,731
6694,794,706
6695,799,725
6696,786,719
6697,780,777
6698,813,769
6699,805,717
6700,799,757
6701,862,723
6702,817,711
6703,782,789
6704,875,703
6705,820,707
6706,834,753
6707,831,721
6708,784,755
6709,826,765
6710,791,740
6711,817,692
6712,817,791
6713,863,736
6714,774,732
6715,807,733
6716,846,722
6717,809,738
6718,836,712
6719,802,761
6720,809,749
6721,817,726
6722,814,721
6723,819,719
6724,824,735
6725,808,723
6726,772,766
6727,895,678
6728,784,706
6729,810,769
6730,869,682
6731,779,743
6732,801,766
6733,866,704
6734,798,712
6735,813,792
6736,833,790
6737,793,757
6738,785,735
6739,802,742
6740,889,671
6741,765,700
6742,804,802
6743,899,769
6744,853,707
6745,836,704
6746,808,710
6747,810,739
6748,803,736
6749,796,724
6750,808,704
6751,820,731
6752,801,750
6753,796,766
6754,794,748
6755,786,791
6756,882,671
6757,774,730
6758,814,786
6759,857,710
6760,817,715
6761,833,744
6762,861,702
6763,790,718
6764,801,732
6765,845,673
6766,766,713
6767,833,708
6768,836,698
6769,795,737
6770,810,738
6771,776,748
6772,829,730
6773,845,777
6774,825,712
6775,817,762
6776,821,727
6777,862,740
6778,842,714
6779,817,712
6780,797,747
6781,837,705
6782,800,724
6783,847,699
6784,805,716
6785,810,700
6786,793,726
6787,781,772
6788,851,701
6789,820,719
6790,825,715
6791,801,769
6792,787,762
6793,811,716
6794,828,740
6795,872,723
6796,805,727
6797,782,774
6798,846,719
6799,841,683
6800,810,735
6801,866,684
6802,794,690
6803,807,797
6804,829,730
6805,789,732
6806,813,776
6807,863,754
6808,756,766
6809,794,742
6810,810,718
6811,849,721
6812,815,744
6813,821,725
6814,812,736
6815,867,692
6816,841,707
6817,832,698
6818,836,692
6819,807,736
6820,798,754
6821,859,726
6822,798,687
6823,794,784
6824,849,745
6825,764,750
6826,789,786
6827,884,668
6828,795,709
6829,791,778
6830,873,718
6831,797,706
6832,838,776
6833,917,672
6834,796,702
6835,819,683
6836,788,728
6837,840,723
6838,811,710
6839,814,703
6840,803,738
6841,801,749
6842,787,768
6843,802,745
6844,841,714
6845,800,729
6846,824,715
6847,822,728
6848,817,720
6849,843,728
6850,849,706
6851,795,707
6852,794,808
6853,893,695
6854,777,708
6855,820,753
6856,844,690
6857,780,706
6858,789,794
6859,796,707
6860,804,721
6861,826,732
6862,846,702
6863,768,756
6864,799,747
6865,827,708
6866,792,724
6867,841,699
6868,799,739
6869,824,717
6870,808,714
6871,826,723
6872,845,725
6873,833,696
6874,790,718
6875,815,749
6876,829,706
6877,809,739
6878,821,712
6879,799,772
6880,808,744
6881,795,744
6882,809,737
6883,791,716
6884,800,751
6885,819,696
6886,777,732
6887,864,715
6888,814,689
6889,845,713
6890,840,675
6891,761,779
6892,835,727
6893,828,719
6894,817,766
6895,845,759
6896,787,766
6897,802,755
6898,786,753
6899,808,720
6900,837,704
6901,799,702
6902,801,754
6903,851,696
6904,838,717
6905,838,713
6906,826,713
6907,810,744
6908,797,723
6909,820,727
6910,827,712
6911,823,737
6912,802,745
6913,796,742
6914,797,752
6915,793,750
6916,846,700
6917,777,750
6918,833,733
6919,815,695
6920,835,769
6921,900,686
6922,816,694
6923,800,764
6924,861,719
6925,806,728
6926,803,772
6927,869,686
6928,778,730
6929,793,793
6930,826,787
6931,814,756
6932,818,698
6933,802,732
6934,818,754
6935,791,743
6936,829,726
6937,840,714
6938,860,698
6939,831,707
6940,811,732
6941,830,721
6942,824,728
6943,854,704
6944,796,722
6945,801,713
6946,790,741
6947,862,698
6948,809,687
6949,807,785
6950,878,699
6951,763,757
6952,783,780
6953,868,719
6954,806,711
6955,836,725
6956,827,741
6957,805,714
6958,805,755
6959,846,689
6960,813,706
6961,821,687
6962,829,704
6963,768,763
6964,840,690
6965,800,740
6966,831,726
6967,823,753
6968,808,799
6969,852,742
6970,810,712
6971,855,701
6972,812,756
6973,813,715
6974,824,729
6975,846,725
6976,851,705
6977,852,703
6978,817,712
6979,851,718
6980,779,707
6981,813,746
6982,862,693
6983,787,770
6984,813,751
6985,777,760
6986,775,745
6987,858,702
6988,782,747
6989,865,736
6990,820,752
6991,818,712
6992,848,717
6993,855,697
6994,842,694
6995,833,744
6996,776,754
6997,810,720
6998,816,711
6999,825,748
7000,811,733
7001,791,774
7002,801,730
7003,815,720
7004,817,724
7005,814,718
7006,822,775
7007,835,723
7008,855,716
7009,847,717
7010,829,698
7011,819,699
7012,796,733
7013,834,696
7014,811,761
7015,883,698
7016,793,714
7017,745,789
7018,775,745
7019,793,717
7020,806,774
7021,865,736
7022,782,757
7023,803,794
7024,900,681
7025,800,721
7026,837,754
7027,870,714
7028,814,742
7029,827,725
7030,802,717
7031,832,701
7032,807,716
7033,828,741
7034,810,749
7035,805,702
7036,824,716
7037,816,747
7038,802,774
7039,787,744
7040,833,727
7041,828,720
7042,830,685
7043,805,758
7044,796,733
7045,804,710
7046,803,787
7047,880,674
7048,783,705
7049,782,789
7050,839,736
7051,772,712
7052,817,737
7053,819,714
7054,794,755
7055,808,775
7056,844,711
7057,833,752
7058,840,739
7059,832,690
7060,763,724
7061,834,711
7062,799,711
7063,810,731
7064,822,684
7065,800,721
7066,807,763
7067,782,728
7068,841,691
7069,807,726
7070,823,768
7071,796,756
7072,805,752
7073,808,738
7074,853,716
7075,822,756
7076,851,718
7077,793,719
7078,804,759
7079,854,660
7080,799,711
7081,810,707
7082,795,746
7083,792,764
7084,860,667
7085,810,751
7086,836,765
7087,817,756
7088,786,738
7089,770,736
7090,816,744
7091,839,745
7092,834,733
7093,812,716
7094,815,751
7095,855,716
7096,838,717
7097,815,704
7098,804,707
7099,810,744
7100,810,714
7101,788,736
7102,811,735
7103,794,769
7104,784,774
7105,781,756
7106,796,746
7107,853,731
7108,794,729
7109,796,724
7110,825,733
7111,823,752
7112,874,685
7113,834,667
7114,809,755
7115,792,764
7116,771,714
7117,816,769
7118,836,765
7119,779,697
7120,787,810
7121,870,712
7122,768,756
7123,818,759
7124,891,688
7125,775,736
7126,828,770
7127,807,738
7128,854,722
7129,841,719
7130,850,699
7131,811,745
7132,787,740
7133,820,744
7134,818,727
7135,829,704
7136,824,733
7137,799,718
7138,808,749
7139,789,724
7140,824,753
7141,796,724
7142,775,767
7143,798,799
7144,857,724
7145,780,733
7146,817,739
7147,863,695
7148,772,724
7149,813,742
7150,857,703
7151,814,714
7152,840,717
7153,829,698
7154,789,708
7155,815,753
7156,841,696
7157,807,733
7158,814,722
7159,808,760
7160,798,763
7161,781,741
7162,813,740
7163,838,712
7164,820,754
7165,819,714
7166,798,747
7167,865,717
7168,867,718
7169,837,708
7170,817,680
7171,785,750
7172,793,772
7173,839,702
7174,801,702
7175,802,751
7176,821,742
7177,779,754
7178,807,731
7179,829,699
7180,804,764
7181,834,687
7182,781,754
7183,851,734
7184,857,689
7185,834,729
7186,869,692
7187,800,724
7188,787,756
7189,851,731
7190,790,693
7191,799,730
7192,792,734
7193,782,766
7194,784,769
7195,819,729
7196,802,740
7197,820,721
7198,803,759
7199,826,722
7200,843,708
7201,848,716
7202,826,693
7203,784,734
7204,802,703
7205,796,734
7206,822,713
7207,827,684
7208,794,730
7209,824,733
7210,793,721
7211,779,762
7212,865,700
7213,766,726
7214,786,806
7215,851,734
7216,781,742
7217,829,773
7218,919,733
7219,812,718
7220,790,731
7221,821,716
7222,831,734
7223,836,716
7224,815,718
7225,812,729
7226,784,759
7227,805,725
7228,819,713
7229,820,739
7230,811,731
7231,793,759
7232,790,751
7233,794,746
7234,774,727
7235,869,694
7236,808,713
7237,826,781
7238,822,713
7239,812,715
7240,829,782
7241,898,679
7242,777,715
7243,793,782
7244,863,682
7245,771,721
7246,811,754
7247,830,723
7248,756,763
7249,807,766
7250,823,738
7251,846,730
7252,820,741
7253,846,697
7254,804,743
7255,860,704
7256,822,729
7257,848,710
7258,810,714
7259,804,755
7260,814,721
7261,800,732
7262,832,722
7263,804,742
7264,786,743
7265,803,757
7266,788,802
7267,879,689
7268,769,715
7269,815,755
7270,833,717
7271,794,745
7272,835,743
7273,858,678
7274,825,719
7275,810,717
7276,793,695
7277,825,765
7278,848,707
7279,788,710
7280,815,711
7281,798,718
7282,788,807
7283,821,693
7284,815,709
7285,818,730
7286,814,766
7287,788,747
7288,809,743
7289,829,730
7290,851,713
7291,804,718
7292,803,724
7293,833,744
7294,859,721
7295,835,699
7296,841,706
7297,822,708
7298,795,738
7299,823,716
7300,810,707
7301,793,709
7302,828,769
7303,810,781
7304,808,719
7305,797,802
7306,863,696
7307,825,670
7308,774,796
7309,866,702
7310,790,710
7311,839,752
7312,815,711
7313,813,673
7314,807,768
7315,821,693
7316,797,700
7317,789,798
7318,898,715
7319,781,750
7320,788,763
7321,769,773
7322,808,721
7323,833,717
7324,802,738
7325,837,719
7326,830,744
7327,847,705
7328,856,700
7329,864,699
7330,815,694
7331,757,766
7332,880,698
7333,792,722
7334,828,762
7335,810,781
7336,779,759
7337,789,810
7338,855,689
7339,818,708
7340,786,754
7341,852,689
7342,806,725
7343,835,760
7344,891,696
7345,825,711
7346,829,687
7347,787,754
7348,829,721
7349,821,727
7350,833,710
7351,817,732
7352,775,766
7353,787,773
7354,791,726
7355,854,724
7356,796,744
7357,822,726
7358,826,739
7359,845,710
7360,856,729
7361,859,720
7362,807,696
7363,791,813
7364,866,671
7365,751,729
7366,838,741
7367,852,700
7368,782,729
7369,807,766
7370,815,705
7371,801,711
7372,792,728
7373,819,702
7374,803,767
7375,834,719
7376,827,720
7377,841,727
7378,847,672
7379,795,741
7380,856,737
7381,856,713
7382,831,726
7383,845,718
7384,805,672
7385,774,725
7386,801,758
7387,790,712
7388,811,738
7389,827,710
7390,821,749
7391,793,733
7392,797,740
7393,800,731
7394,804,707
7395,809,752
7396,823,693
7397,784,752
7398,856,691
7399,803,694
7400,820,707
7401,807,658
7402,771,773
7403,825,712
7404,822,686
7405,784,763
7406,862,790
7407,803,781
7408,787,754
7409,796,741
7410,809,713
7411,831,710
7412,769,729
7413,835,757
7414,847,706
7415,815,694
7416,835,693
7417,810,706
7418,817,741
7419,786,725
7420,842,737
7421,803,716
7422,826,738
7423,810,741
7424,786,758
7425,786,755
7426,796,752
7427,838,718
7428,768,780
7429,876,691
7430,809,733
7431,842,756
7432,820,707
7433,811,695
7434,806,760
7435,857,709
7436,811,702
7437,790,772
7438,875,693
7439,794,730
7440,772,755
7441,825,779
7442,824,749
7443,846,722
7444,812,747
7445,819,723
7446,809,747
7447,831,733
7448,858,735
7449,842,711
7450,816,687
7451,798,757
7452,819,727
7453,804,740
7454,841,724
7455,812,701
7456,808,722
7457,805,706
7458,796,752
7459,787,718
7460,800,766
7461,860,687
7462,785,767
7463,785,780
7464,817,724
7465,797,743
7466,850,716
7467,808,699
7468,782,720
7469,818,725
7470,850,693
7471,815,698
7472,814,689
7473,781,701
7474,824,746
7475,806,718
7476,807,722
7477,819,726
7478,846,734
7479,764,782
7480,801,771
7481,830,750
7482,827,710
7483,825,696
7484,799,717
7485,830,723
7486,847,731
7487,856,716
7488,829,705
7489,837,717
7490,838,698
7491,798,740
7492,846,727
7493,804,680
7494,789,742
7495,808,741
7496,769,756
7497,797,749
7498,841,693
7499,816,744
7500,828,710
7501,807,706
7502,865,712
7503,855,711
7504,843,708
7505,838,685
7506,841,676
7507,775,763
7508,849,690
7509,779,761
7510,837,714
7511,813,728
7512,780,765
7513,782,758
7514,800,719
7515,858,707
7516,801,752
7517,809,744
7518,838,731
7519,832,734
7520,839,712
7521,850,683
7522,810,717
7523,830,758
7524,840,686
7525,793,771
7526,881,690
7527,791,708
7528,796,788
7529,797,749
7530,773,725
7531,821,769
7532,856,714
7533,793,707
7534,795,808
7535,878,699
7536,814,737
7537,854,696
7538,829,753
7539,861,784
7540,821,714
7541,806,732
7542,835,711
7543,806,710
7544,812,717
7545,800,750
7546,794,742
7547,836,721
7548,818,726
7549,844,724
7550,809,776
7551,824,747
7552,818,728
7553,830,709
7554,813,743
7555,830,758
7556,790,707
7557,787,774
7558,904,662
7559,782,688
7560,809,733
7561,828,713
7562,774,756
7563,845,744
7564,826,720
7565,783,742
7566,816,764
7567,814,730
7568,791,727
7569,825,715
7570,833,712
7571,802,753
7572,814,706
7573,800,720
7574,840,726
7575,856,716
7576,820,707
7577,803,735
7578,796,751
7579,822,735
7580,834,749
7581,821,723
7582,819,764
7583,804,753
7584,797,746
7585,826,743
7586,848,735
7587,846,714
7588,801,742
7589,823,740
7590,842,695
7591,813,713
7592,828,674
7593,785,735
7594,835,756
7595,824,702
7596,787,776
7597,876,712
7598,808,729
7599,777,778
7600,852,753
7601,803,735
7602,834,733
7603,832,734
7604,808,719
7605,788,730
7606,858,729
7607,848,709
7608,816,717
7609,808,717
7610,799,740
7611,806,715
7612,808,742
7613,824,719
7614,823,757
7615,803,770
7616,800,748
7617,785,748
7618,825,676
7619,800,713
7620,811,724
7621,810,714
7622,840,763
7623,906,688
7624,824,702
7625,816,755
7626,835,756
7627,784,714
7628,823,803
7629,882,688
7630,787,746
7631,777,833
7632,839,736
7633,757,737
7634,799,780
7635,856,692
7636,764,708
7637,819,784
7638,872,726
7639,859,725
7640,843,689
7641,835,709
7642,804,741
7643,816,742
7644,847,723
7645,811,722
7646,830,730
7647,801,736
7648,811,763
7649,797,750
7650,797,709
7651,824,775
7652,862,711
7653,797,730
7654,810,793
7655,934,690
7656,830,689
7657,806,754
7658,838,705
7659,761,709
7660,834,757
7661,852,700
7662,790,718
7663,798,756
7664,832,700
7665,764,776
7666,855,757
7667,836,707
7668,806,732
7669,820,729
7670,829,713
7671,856,716
7672,829,715
7673,825,714
7674,801,730
7675,794,756
7676,842,736
7677,809,732
7678,815,741
7679,809,746
7680,806,759
7681,788,757
7682,773,717
7683,840,732
7684,831,705
7685,779,727
7686,816,758
7687,859,682
7688,830,707
7689,845,682
7690,800,722
7691,803,740
7692,839,702
7693,799,723
7694,838,715
7695,798,716
7696,770,758
7697,830,742
7698,788,709
7699,814,752
7700,839,727
7701,799,713
7702,788,790
7703,897,720
7704,871,730
7705,840,716
7706,819,703
7707,768,745
7708,848,702
7709,805,717
7710,820,707
7711,819,710
7712,789,743
7713,773,721
7714,782,722
7715,844,687
7716,782,752
7717,854,738
7718,796,700
7719,803,772
7720,890,709
7721,834,683
7722,816,783
7723,803,740
7724,804,708
7725,787,785
7726,886,740
7727,825,716
7728,807,718
7729,786,726
7730,789,762
7731,871,690
7732,769,771
7733,848,755
7734,799,742
7735,800,738
7736,821,722
7737,835,739
7738,829,710
7739,800,736
7740,836,714
7741,805,719
7742,857,707
7743,835,707
7744,806,704
7745,770,739
7746,845,745
7747,796,703
7748,778,788
7749,880,695
7750,760,759
7751,791,812
7752,862,714
7753,769,734
7754,837,728
7755,841,713
7756,797,720
7757,803,768
7758,889,689
7759,827,735
7760,841,732
7761,853,695
7762,763,779
7763,865,748
7764,830,739
7765,822,729
7766,800,759
7767,784,758
7768,790,762
7769,814,727
7770,840,706
7771,812,744
7772,818,709
7773,803,750
7774,857,717
7775,840,704
7776,831,726
7777,802,767
7778,868,721
7779,770,709
7780,817,776
7781,847,702
7782,797,734
7783,802,772
7784,794,739
7785,782,755
7786,857,682
7787,792,706
7788,798,731
7789,815,744
7790,835,750
7791,872,727
7792,846,697
7793,806,728
7794,845,742
7795,810,706
7796,787,779
7797,859,724
7798,835,771
7799,793,756
7800,791,749
7801,785,725
7802,821,716
7803,825,757
7804,824,723
7805,806,753
7806,834,717
7807,841,714
7808,830,701
7809,818,714
7810,831,733
7811,788,728
7812,822,724
7813,819,718
7814,800,766
7815,805,733
7816,755,785
7817,819,723
7818,836,679
7819,799,782
7820,877,704
7821,781,733
7822,833,765
7823,872,727
7824,808,684
7825,820,710
7826,777,756
7827,826,742
7828,809,753
7829,821,728
7830,799,760
7831,805,759
7832,813,736
7833,805,718
7834,846,715
7835,805,739
7836,822,720
7837,820,740
7838,850,705
7839,847,708
7840,825,721
7841,803,697
7842,778,781
7843,859,707
7844,782,731
7845,804,796
7846,844,735
7847,757,740
7848,815,807
7849,896,692
7850,807,705
7851,777,798
7852,877,682
7853,785,729
7854,831,740
7855,860,663
7856,793,711
7857,785,757
7858,816,724
7859,807,701
7860,797,738
7861,835,743
7862,800,762
7863,849,766
7864,797,738
7865,852,720
7866,827,703
7867,809,758
7868,840,711
7869,804,730
7870,845,708
7871,842,697
7872,832,712
7873,797,722
7874,786,820
7875,898,678
7876,765,722
7877,807,789
7878,847,736
7879,767,742
7880,818,754
7881,860,688
7882,806,705
7883,790,733
7884,822,680
7885,802,752
7886,857,692
7887,821,722
7888,829,720
7889,783,717
7890,793,770
7891,869,729
7892,793,736
7893,825,752
7894,801,765
7895,806,754
7896,797,729
7897,837,709
7898,817,708
7899,797,742
7900,837,720
7901,811,728
7902,824,713
7903,834,695
7904,799,704
7905,771,720
7906,783,769
7907,871,697
7908,775,721
7909,828,733
7910,782,752
7911,816,747
7912,820,728
7913,803,725
7914,865,711
7915,807,713
7916,795,766
7917,882,734
7918,819,660
7919,800,766
7920,865,689
7921,772,722
7922,764,770
7923,893,687
7924,771,705
7925,783,777
7926,814,766
7927,822,753
7928,841,743
7929,859,706
7930,826,697
7931,783,746
7932,801,710
7933,830,725
7934,831,721
7935,824,694
7936,822,719
7937,789,742
7938,797,719
7939,811,725
7940,844,737
7941,799,738
7942,794,788
7943,824,730
7944,783,732
7945,848,770
7946,886,675
7947,771,730
7948,818,773
7949,855,710
7950,821,705
7951,810,750
7952,871,669
7953,789,734
7954,829,753
7955,846,712
7956,818,742
7957,815,771
7958,811,761
7959,814,751
7960,820,733
7961,839,713
7962,830,722
7963,794,748
7964,818,705
7965,818,738
7966,839,713
7967,825,691
7968,825,700
7969,838,698
7970,766,717
7971,836,773
7972,868,704
7973,772,743
7974,788,790
7975,827,715
7976,783,724
7977,844,752
7978,837,700
7979,770,760
